# XDI/1.0
# Column.1: energy(ev)
# Column.2: fluorescence_emission(au)
# Element.symbol: Zn
# Element.edge: K
# Mono.name: Si 2 2 0
# Mono.d_spacing: 1.92
# Beamline.name: FAME
# Sample.name: Frozen solution of hydrated Zn ion ($Zn(H_2O)_6^{2+}$)
# Sample.temperature: 10.0 +/- 5.0 K
# Sample.pressure: None
# Citation.doi:  https://doi.org/10.26302/SSHADE/EXPERIMENT_ST_20180418_001
# Citation.comments: Thomas, Sara; Mishra, Bhoopesh (2018): Zn K edge XAS HERFD of Zn compounds at 10K for coordination determination in complex biological systems. SSHADE/FAME (OSUG Data Center). Dataset/Spectral Data. https://doi.org/10.26302/SSHADE/EXPERIMENT_ST_20180418_001Schmitt, Bernard; Bollard, Philippe; Albert, Damien; Garenne, Alexandre; Bonal, Lydie; and the SSHADE partner's consortium (2018). SSHADE: 'Solid Spectroscopy Hosting Architecture of Databases and Expertise'. OSUG Data Center. Service/Database infrastructure. https://doi.org/10.26302/SSHADE
# ////
#---------
# energy(ev)	fluorescence_emission(au)
9598.190310	1.86412
9604.430200	1.87547
9609.660150	1.93748
9614.890100	1.76812
9619.859700	1.85142
9624.990460	1.93564
9630.009650	1.81017
9630.579950	1.85504
9631.030080	1.91381
9631.549840	1.79265
9632.069590	1.81297
9632.559780	1.81902
9633.060460	1.92040
9633.540150	1.87195
9634.090420	1.83586
9634.550090	1.83608
9635.060310	1.86585
9635.560040	1.90870
9636.050220	1.80475
9636.569980	1.86704
9637.069700	1.88349
9637.590410	1.83126
9638.019560	1.85061
9638.560300	1.98707
9639.089580	1.88278
9639.590260	1.79592
9640.080450	1.87408
9640.560150	1.94188
9641.130450	1.98375
9641.539570	1.96951
9642.060280	1.93846
9642.569540	1.86446
9643.059730	1.88630
9643.569950	1.93940
9644.120220	2.01859
9644.550320	2.16179
9645.050050	2.01835
9645.560260	2.12688
9646.089550	2.12629
9646.579740	1.94165
9647.060390	2.19596
9647.629740	2.06542
9648.019790	2.10564
9648.579600	2.24812
9649.109840	2.33667
9649.580000	2.26493
9650.070190	2.50371
9650.580410	2.42316
9651.140210	2.55221
9651.539800	2.64586
9652.050020	2.72033
9652.560230	2.94102
9653.079990	3.17394
9653.599740	3.26328
9654.080390	3.72911
9654.580120	4.30287
9655.030250	5.03209
9655.590060	5.77972
9656.089780	7.35054
9656.559940	8.77514
9657.070160	12.11521
9657.580380	16.52835
9658.120160	23.18866
9658.559800	33.22959
9659.090040	57.26665
9659.580230	106.87954
9660.079960	236.33145
9660.590170	497.56850
9661.100390	825.38431
9661.540030	1128.80310
9662.059780	1714.52190
9662.579540	3243.75228
9663.089750	6013.56722
9663.579940	9761.98550
9664.059640	13884.45570
9664.600370	17780.69570
9665.049550	20626.50090
9665.570260	22438.60290
9666.069980	23218.72590
9666.560170	23832.41480
9667.070390	24875.62360
9667.599680	26440.19780
9668.140410	27528.19150
9668.519970	27643.44590
9669.079780	26671.60120
9669.599530	24500.52170
9670.089720	21979.81980
9670.570370	19505.19730
9671.039580	17119.65150
9671.600340	14993.85060
9672.060010	13526.44030
9672.579770	12284.09960
9673.080440	11442.47230
9673.569680	10899.27440
9674.059870	10539.08010
9674.579620	10357.10480
9675.120350	10291.98050
9675.530430	10313.98120
9676.059720	10396.02960
9676.580430	10551.62540
9677.100180	10658.27310
9677.599910	10792.84180
9678.130150	10915.23170
9678.500180	10977.32310
9679.080010	11035.49710
9679.610250	11097.87030
9680.060390	11142.37640
9680.580140	11195.14520
9681.070330	11178.45480
9681.619640	11149.82870
9682.049750	11105.53350
9682.570460	11089.63180
9683.079720	10989.86970
9683.560370	10822.58980
9684.080120	10654.86300
9684.570310	10499.00890
9685.099600	10277.21320
9685.549740	10050.20010
9686.079980	9876.84916
9686.570170	9706.52825
9687.129970	9484.52424
9687.589650	9311.01628
9688.059810	9137.47217
9688.619610	8962.35297
9689.060210	8828.06725
9689.559940	8683.35441
9690.070150	8519.17958
9690.569880	8405.90571
9691.069600	8344.02295
9691.590310	8290.64030
9692.119600	8258.16252
9692.549710	8242.20975
9693.050380	8253.56510
9693.579670	8296.76335
9694.089890	8351.64734
9694.560050	8451.49934
9695.070270	8569.90485
9695.599560	8712.28060
9696.069720	8887.26716
9696.599960	9116.84780
9697.090150	9299.20104
9697.569850	9536.17383
9698.080060	9788.51505
9698.590280	9990.25330
9699.130060	10257.86930
9699.520110	10463.54690
9700.070380	10731.79140
9702.549930	11722.35670
9707.940100	12811.13410
9710.769650	12910.12440
9713.370320	12902.18430
9716.400150	12736.76460
9719.369890	12626.79500
9722.350120	12486.98740
9725.649830	12306.30900
9728.770260	12066.23050
9731.900220	11794.96360
9735.500340	11449.10700
9738.699910	11190.41150
9742.369650	10897.79460
9745.940210	10766.86050
9749.569890	10746.24330
9753.149990	10858.25260
9757.140160	11006.11750
9761.030200	11104.58120
9764.940260	11254.81310
9768.939970	11400.14600
9773.010250	11493.38370
9777.389530	11593.61890
9781.430240	11639.06930
9785.900120	11659.14130
9790.349960	11647.24090
9794.699670	11587.13840
9799.369810	11523.22700
9803.959850	11490.41410
9808.690070	11342.20820
9813.429830	11264.41050
9818.300250	11223.32840
9823.280330	11172.23820
9828.289990	11108.69240
9833.359720	11051.02600
9838.540080	11045.67590
9843.839650	11030.39010
9849.120140	11015.74330
9854.510310	11055.05300
9859.900470	11085.14040
9865.489960	11145.23000
9871.109960	11152.53420
9876.899720	11147.36010
9882.599830	11152.95940
9888.480190	11126.68600
9894.399640	11139.88650
