# XDI/1.0
# Column.1: energy(ev)
# Column.2: fluorescence_emission(au)
# Element.symbol: Zn
# Element.edge: K
# Mono.name: Si 2 2 0
# Mono.d_spacing: 1.92
# Beamline.name: FAME
# Sample.name: Frozen solution of aqueous Zn(Histidine)4
# Sample.temperature: 10.0 +/- 5.0 K
# Sample.pressure: None
# Citation.doi:  https://doi.org/10.26302/SSHADE/EXPERIMENT_ST_20180418_001
# Citation.comments: Thomas, Sara; Mishra, Bhoopesh (2018): Zn K edge XAS HERFD of Zn compounds at 10K for coordination determination in complex biological systems. SSHADE/FAME (OSUG Data Center). Dataset/Spectral Data. https://doi.org/10.26302/SSHADE/EXPERIMENT_ST_20180418_001Schmitt, Bernard; Bollard, Philippe; Albert, Damien; Garenne, Alexandre; Bonal, Lydie; and the SSHADE partner's consortium (2018). SSHADE: 'Solid Spectroscopy Hosting Architecture of Databases and Expertise'. OSUG Data Center. Service/Database infrastructure. https://doi.org/10.26302/SSHADE
# ////
#---------
# energy(ev)	fluorescence_emission(au)
9598.199840	1.74705
9604.439740	1.68319
9609.669690	1.61926
9614.819530	1.57232
9619.979860	1.72724
9625.000000	1.58513
9629.949570	1.59096
9630.570410	1.55507
9631.030080	1.66646
9631.560330	1.67150
9632.089610	1.65574
9632.550240	1.56304
9633.060460	1.52996
9633.549690	1.60689
9634.090420	1.59815
9634.550090	1.62040
9635.069850	1.56652
9635.560040	1.56880
9636.039730	1.69491
9636.569980	1.64216
9637.069700	1.55790
9637.590410	1.59920
9638.019560	1.63878
9638.549800	1.60478
9639.089580	1.69588
9639.599800	1.61217
9640.060420	1.60617
9640.569690	1.53524
9641.130450	1.52607
9641.539570	1.58690
9642.049790	1.68726
9642.560010	1.55408
9643.059730	1.56444
9643.569950	1.64602
9644.109730	1.58597
9644.559860	1.57853
9645.050050	1.57249
9645.560260	1.65368
9646.080020	1.59226
9646.579740	1.56081
9647.060390	1.76154
9647.580150	1.63391
9648.059840	1.60833
9648.590090	1.67915
9649.100300	1.51426
9649.589540	1.55832
9650.070190	1.66100
9650.580410	1.61873
9651.129720	1.65754
9651.539800	1.70248
9652.059560	1.73009
9652.569770	1.73370
9653.070450	1.72497
9653.590200	1.68187
9654.080390	1.82833
9654.609680	1.93229
9655.019760	2.12078
9655.570030	2.36128
9656.089780	2.53226
9656.559940	3.25726
9657.050130	3.77027
9657.600400	4.74677
9658.129690	6.78644
9658.550260	8.94107
9659.099580	13.91611
9659.580230	22.31083
9660.090450	42.80235
9660.590170	101.05259
9661.120410	274.54917
9661.529540	607.78794
9662.050250	1120.97731
9662.590030	1535.70186
9663.089750	1856.22003
9663.579940	2207.80359
9664.059640	2492.13543
9664.600370	2514.04664
9665.049550	2375.13490
9665.570260	2226.70111
9666.069980	2151.15479
9666.560170	2111.57910
9667.079930	2074.47982
9667.599680	2046.91764
9668.129920	2056.05227
9668.540000	2100.69269
9669.079780	2199.92320
9669.590000	2322.12913
9670.089720	2457.05951
9670.570370	2592.66718
9671.070100	2683.13245
9671.600340	2723.02357
9672.030450	2690.81370
9672.599790	2576.39886
9673.089980	2436.85837
9673.569680	2305.23491
9674.059870	2193.12695
9674.579620	2110.63831
9675.129890	2067.71179
9675.530430	2056.24080
9676.059720	2056.96806
9676.569940	2070.50724
9677.100180	2083.04443
9677.599910	2075.21584
9678.130150	2061.17483
9678.500180	2037.42599
9679.080010	1996.22881
9679.610250	1950.45651
9680.080410	1912.18719
9680.569650	1874.33632
9681.070330	1843.31320
9681.610110	1816.88844
9682.060240	1787.29551
9682.579990	1765.55115
9683.070180	1739.56183
9683.560370	1713.92551
9684.080120	1681.61059
9684.590340	1655.17368
9685.110090	1627.55834
9685.540200	1602.23524
9686.059950	1574.33422
9686.599730	1550.20853
9687.109950	1528.24845
9687.589650	1508.00037
9688.070300	1492.43909
9688.619610	1475.81225
9689.060210	1461.15208
9689.570430	1445.99240
9690.070150	1432.56582
9690.569880	1417.81648
9691.069600	1411.61130
9691.590310	1403.68737
9692.130090	1396.38966
9692.540170	1391.49209
9693.050380	1383.11048
9693.579670	1379.62988
9694.089890	1378.99947
9694.549560	1370.34683
9695.079800	1371.10752
9695.599560	1365.53667
9696.069720	1367.48756
9696.599960	1366.51265
9697.079660	1363.18315
9697.589870	1369.85165
9698.080060	1370.61332
9698.590280	1379.91632
9699.139600	1393.55468
9699.509620	1399.91364
9700.059890	1411.41308
9701.290130	1449.14771
9703.889850	1553.12643
9705.200200	1607.34351
9706.620220	1672.56992
9707.859990	1723.93241
9709.280010	1780.85348
9710.590360	1826.50521
9712.059970	1857.80734
9713.480000	1879.26037
9714.830400	1874.38141
9716.460230	1862.51692
9717.829700	1836.26983
9719.360350	1805.14861
9720.849990	1765.93884
9722.379680	1735.26806
9723.959920	1714.41735
9725.520130	1698.65421
9727.190020	1697.44299
9728.670120	1703.94449
9730.369570	1707.42247
9731.969830	1718.57169
9733.659740	1728.34684
9735.389710	1742.74267
9737.110140	1751.96897
9738.750460	1752.67577
9740.579610	1749.38695
9742.250440	1742.06536
9744.119640	1727.04181
9745.860100	1706.66876
9747.770310	1683.29481
9749.480250	1665.38427
9751.379970	1645.58386
9753.230090	1625.72016
9755.240440	1615.15224
9757.200240	1605.82118
9758.879660	1600.02828
9760.899540	1601.41231
9763.010030	1599.86368
9764.980320	1611.24865
9766.839980	1613.68952
9768.989560	1624.08423
9770.930290	1631.18797
9773.099900	1641.10663
9775.139810	1645.05743
9777.359960	1650.29003
9779.299740	1651.12247
9781.490330	1650.91748
9783.699990	1650.03326
9785.880090	1646.40533
9787.949560	1644.93069
9790.349960	1648.40391
9792.380330	1648.70310
9794.830320	1650.49230
9797.069550	1648.94487
9799.240110	1662.46687
9801.560400	1666.94462
9803.979870	1672.95085
9806.329730	1679.98834
9808.639530	1684.58297
9811.019900	1685.25947
9813.500400	1691.85467
9815.950390	1684.88270
9818.329810	1684.20707
9820.690160	1675.17077
9823.439600	1663.06038
9825.719830	1652.97016
9828.180310	1643.85743
9830.869670	1632.10927
9833.450320	1623.88309
9835.900310	1617.74261
9838.459970	1608.69764
9841.130260	1607.86832
9843.859670	1605.13016
9846.389770	1601.29532
9849.100110	1602.57907
9851.840020	1604.20499
9854.430200	1605.98166
9857.230190	1605.46488
9859.979630	1604.35377
9862.819670	1602.37886
9865.469930	1605.66727
9868.359570	1606.45536
9871.009830	1604.21998
9874.030110	1602.63393
9876.830100	1603.59902
9879.719730	1601.10583
9882.610320	1598.72095
9885.549550	1601.14293
9888.440130	1599.16089
9891.380310	1597.57544
9894.410130	1597.73173
9897.439960	1598.11616
9900.270460	1599.50212
9903.539660	1602.83162
9906.359670	1600.23203
9909.580230	1599.58334
9912.520410	1595.72740
9915.740010	1594.79740
9918.760300	1591.57987
9922.010420	1590.04871
9925.230030	1589.23048
9928.290370	1584.92648
9931.360240	1580.84848
9934.820180	1581.81735
9937.899590	1577.62710
9941.180230	1575.29485
9944.580080	1572.42698
9947.680470	1575.16394
9951.140400	1570.73278
9954.350470	1570.45294
9957.759860	1566.73767
9961.050030	1564.20683
9964.619640	1565.33999
9967.829700	1561.56676
9971.260070	1555.66783
9974.849700	1551.01421
9978.219990	1552.34561
9981.539730	1548.42292
9985.289570	1545.22585
9988.579750	1540.67863
9992.199900	1541.95252
9995.849610	1542.22589
9999.300000	1541.80282
10003.000300	1541.71130
10006.600400	1542.52965
10010.100400	1540.21624
10013.899800	1540.21992
10017.600100	1541.22111
10021.100000	1539.82772
10024.900400	1544.55515
10028.699900	1539.10406
10032.300000	1539.76703
10036.100400	1539.97249
10039.899800	1536.73891
10043.700200	1535.43185
10047.599800	1532.00096
10051.300000	1527.36641
10055.299800	1530.43942
10059.200300	1526.67083
10062.899600	1522.53717
10067.099600	1522.99728
10070.799800	1521.44713
10074.700400	1520.49045
10078.800200	1516.36562
10082.799900	1516.49110
10086.899800	1514.88532
10090.600000	1511.04083
10094.900100	1508.63434
10098.899800	1506.63565
10103.099800	1507.93151
10107.000400	1504.38457
10111.300500	1500.70481
10115.300200	1502.50633
10119.600300	1495.48892
10123.600000	1498.07585
10127.900100	1494.28920
10132.200200	1492.28083
10136.400200	1491.98747
10140.700300	1491.19049
10144.900300	1491.31549
10149.200400	1485.81872
10153.499600	1488.29152
10157.899900	1486.93474
10162.200000	1486.55761
10166.500100	1483.25238
10170.999500	1483.87852
10175.299600	1479.66778
10179.800000	1479.83643
10184.200300	1478.19774
10188.799900	1477.17373
10192.999800	1477.56014
10197.699500	1475.20899
10202.199900	1476.37732
10206.700300	1474.63194
10211.299900	1481.80930
10215.800300	1471.15323
10220.399900	1468.74533
10225.099600	1465.92472
10229.700100	1461.98644
10234.299700	1464.35292
10238.900200	1462.41769
10243.599900	1463.08268
