# XDI/1.0
# Column.1: energy(ev)
# Column.2: fluorescence_emission(au)
# Element.symbol: Zn
# Element.edge: K
# Mono.name: Si 2 2 0
# Mono.d_spacing: 1.92
# Beamline.name: FAME
# Sample.name: Pellet of Zn phthalocyanine mixed with BN
# Sample.temperature: 10.0 +/- 5.0 K
# Sample.pressure: None
# Citation.doi:  https://doi.org/10.26302/SSHADE/EXPERIMENT_ST_20180418_001
# Citation.comments: Thomas, Sara; Mishra, Bhoopesh (2018): Zn K edge XAS HERFD of Zn compounds at 10K for coordination determination in complex biological systems. SSHADE/FAME (OSUG Data Center). Dataset/Spectral Data. https://doi.org/10.26302/SSHADE/EXPERIMENT_ST_20180418_001Schmitt, Bernard; Bollard, Philippe; Albert, Damien; Garenne, Alexandre; Bonal, Lydie; and the SSHADE partner's consortium (2018). SSHADE: 'Solid Spectroscopy Hosting Architecture of Databases and Expertise'. OSUG Data Center. Service/Database infrastructure. https://doi.org/10.26302/SSHADE
# ////
#---------
# energy(ev)	fluorescence_emission(au)
9512.160000	2.30037
9512.660000	2.30006
9513.160000	2.29975
9513.660000	2.29943
9514.160000	2.29912
9514.660000	2.29881
9515.160000	2.29849
9515.660000	2.29818
9516.160000	2.29787
9516.660000	2.29755
9517.160000	2.29724
9517.660000	2.29693
9518.160000	2.29661
9518.660000	2.29630
9519.160000	2.29599
9519.660000	2.29567
9520.160000	2.29536
9520.660000	2.29505
9521.160000	2.29473
9521.660000	2.29442
9522.160000	2.29410
9522.660000	2.29379
9523.160000	2.29348
9523.660000	2.29316
9524.160000	2.29285
9524.660000	2.29254
9525.160000	2.29222
9525.660000	2.29191
9526.160000	2.29160
9526.660000	2.29128
9527.160000	2.29097
9527.660000	2.29066
9528.160000	2.29034
9528.660000	2.29003
9529.160000	2.28972
9529.660000	2.28940
9530.160000	2.28909
9530.660000	2.28878
9531.160000	2.28846
9531.660000	2.28815
9532.160000	2.28784
9532.660000	2.28752
9533.160000	2.28721
9533.660000	2.28690
9534.160000	2.28658
9534.660000	2.28627
9535.160000	2.28596
9535.660000	2.28564
9536.160000	2.28533
9536.660000	2.28502
9537.160000	2.28470
9537.660000	2.28439
9538.160000	2.28408
9538.660000	2.28376
9539.160000	2.28345
9539.660000	2.28314
9540.160000	2.28282
9540.660000	2.28251
9541.160000	2.28219
9541.660000	2.28188
9542.160000	2.28157
9542.660000	2.28125
9543.160000	2.28094
9543.660000	2.28063
9544.160000	2.28031
9544.660000	2.28000
9545.160000	2.27969
9545.660000	2.27937
9546.160000	2.27906
9546.660000	2.27875
9547.160000	2.27843
9547.660000	2.27812
9548.160000	2.27781
9548.660000	2.27749
9549.160000	2.27718
9549.660000	2.27687
9550.160000	2.27655
9550.660000	2.27624
9551.160000	2.27593
9551.660000	2.27561
9552.160000	2.27530
9552.660000	2.27499
9553.160000	2.27467
9553.660000	2.27436
9554.160000	2.27405
9554.660000	2.27373
9555.160000	2.27342
9555.660000	2.27311
9556.160000	2.27279
9556.660000	2.27248
9557.160000	2.27217
9557.660000	2.27185
9558.160000	2.27154
9558.660000	2.27123
9559.160000	2.27091
9559.660000	2.27060
9560.160000	2.27028
9560.660000	2.26997
9561.160000	2.26966
9561.660000	2.26934
9562.160000	2.26903
9562.660000	2.26872
9563.160000	2.26840
9563.660000	2.26809
9564.160000	2.26778
9564.660000	2.26746
9565.160000	2.26715
9565.660000	2.26684
9566.160000	2.26652
9566.660000	2.26621
9567.160000	2.26590
9567.660000	2.26558
9568.160000	2.26527
9568.660000	2.26496
9569.160000	2.26464
9569.660000	2.26433
9570.160000	2.26402
9570.660000	2.26370
9571.160000	2.26339
9571.660000	2.26308
9572.160000	2.26276
9572.660000	2.26245
9573.160000	2.26214
9573.660000	2.26182
9574.160000	2.26151
9574.660000	2.26120
9575.160000	2.26088
9575.660000	2.26057
9576.160000	2.26026
9576.660000	2.25994
9577.160000	2.25963
9577.660000	2.25931
9578.160000	2.25900
9578.660000	2.25869
9579.160000	2.25837
9579.660000	2.25806
9580.160000	2.25775
9580.660000	2.25743
9581.160000	2.25712
9581.660000	2.25681
9582.160000	2.25649
9582.660000	2.25618
9583.160000	2.25587
9583.660000	2.25555
9584.160000	2.25524
9584.660000	2.25493
9585.160000	2.25461
9585.660000	2.25430
9586.160000	2.25399
9586.660000	2.25367
9587.160000	2.25336
9587.660000	2.25305
9588.160000	2.25273
9588.660000	2.25242
9589.160000	2.25211
9589.660000	2.25179
9590.160000	2.25148
9590.660000	2.25117
9591.160000	2.25085
9591.660000	2.25054
9592.160000	2.25023
9592.660000	2.24991
9593.160000	2.24960
9593.660000	2.24929
9594.160000	2.24897
9594.660000	2.24866
9595.160000	2.24835
9595.660000	2.24803
9596.160000	2.24772
9596.660000	2.24741
9597.160000	2.24709
9597.660000	2.24678
9598.160000	2.24646
9598.660000	2.24615
9599.160000	2.24584
9599.660000	2.24552
9600.160000	2.24521
9600.660000	2.24490
9601.160000	2.24458
9601.660000	2.24427
9602.160000	2.24396
9602.660000	2.24364
9603.160000	2.24333
9603.660000	2.24302
9604.160000	2.24270
9604.660000	2.24239
9605.160000	2.24208
9605.660000	2.24176
9606.160000	2.24145
9606.660000	2.24114
9607.160000	2.24082
9607.660000	2.24051
9608.160000	2.24020
9608.660000	2.23988
9609.160000	2.24134
9609.660000	2.24360
9610.160000	2.24591
9610.660000	2.24823
9611.160000	2.25054
9611.660000	2.25286
9612.160000	2.25518
9612.660000	2.25749
9613.160000	2.25981
9613.660000	2.26212
9614.160000	2.26414
9614.660000	2.26512
9615.160000	2.26578
9615.660000	2.26643
9616.160000	2.26708
9616.660000	2.26773
9617.160000	2.26838
9617.660000	2.26904
9618.160000	2.26969
9618.660000	2.27034
9619.160000	2.26809
9619.660000	2.25964
9620.160000	2.24929
9620.660000	2.23891
9621.160000	2.22853
9621.660000	2.21816
9622.160000	2.20778
9622.660000	2.19740
9623.160000	2.18702
9623.660000	2.17664
9624.160000	2.16692
9624.660000	2.16068
9625.160000	2.15562
9625.660000	2.15057
9626.160000	2.14552
9626.660000	2.14048
9627.160000	2.13543
9627.660000	2.13038
9628.160000	2.12534
9628.660000	2.12029
9629.160000	2.11221
9629.660000	2.09764
9630.160000	2.08323
9630.660000	2.09362
9631.160000	2.11702
9631.660000	2.17253
9632.160000	2.16915
9632.660000	2.15900
9633.160000	2.14043
9633.660000	2.08787
9634.160000	2.08975
9634.660000	2.10137
9635.160000	2.14757
9635.660000	2.13505
9636.160000	2.13267
9636.660000	2.11107
9637.160000	2.12251
9637.660000	2.11285
9638.160000	2.11176
9638.660000	2.08628
9639.160000	2.06992
9639.660000	2.10076
9640.160000	2.13291
9640.660000	2.11633
9641.160000	2.08498
9641.660000	2.05043
9642.160000	2.04813
9642.660000	2.05153
9643.160000	2.05353
9643.660000	2.06806
9644.160000	2.07082
9644.660000	2.06822
9645.160000	2.07864
9645.660000	2.09736
9646.160000	2.13490
9646.660000	2.13071
9647.160000	2.13541
9647.660000	2.13847
9648.160000	2.16522
9648.660000	2.15173
9649.160000	2.14554
9649.660000	2.14312
9650.160000	2.14128
9650.660000	2.18424
9651.160000	2.23611
9651.660000	2.29189
9652.160000	2.34916
9652.660000	2.43458
9653.160000	2.61425
9653.660000	2.77499
9654.160000	3.05498
9654.660000	3.47075
9655.160000	4.23646
9655.660000	5.77070
9656.160000	9.17347
9656.660000	16.69651
9657.160000	28.69393
9657.660000	52.28530
9658.160000	93.73871
9658.660000	197.58402
9659.160000	415.84322
9659.660000	736.03317
9660.160000	1050.50900
9660.660000	1291.52510
9661.160000	1401.28890
9661.660000	1408.96970
9662.160000	1346.94190
9662.660000	1262.16160
9663.160000	1256.49670
9663.660000	1353.81760
9664.160000	1584.06670
9664.660000	1848.06570
9665.160000	2099.71070
9665.660000	2293.37070
9666.160000	2416.84010
9666.660000	2505.92860
9667.160000	2578.83670
9667.660000	2640.78940
9668.160000	2666.33610
9668.660000	2671.23840
9669.160000	2674.54890
9669.660000	2695.68740
9670.160000	2715.09260
9670.660000	2713.94100
9671.160000	2671.61210
9671.660000	2608.34610
9672.160000	2533.97410
9672.660000	2457.64790
9673.160000	2386.40070
9673.660000	2323.13510
9674.160000	2267.97090
9674.660000	2217.17000
9675.160000	2180.51280
9675.660000	2157.17820
9676.160000	2142.19300
9676.660000	2127.89370
9677.160000	2108.77260
9677.660000	2078.00420
9678.160000	2046.13380
9678.660000	2014.86130
9679.160000	1981.77070
9679.660000	1949.72610
9680.160000	1921.69990
9680.660000	1900.76530
9681.160000	1881.65090
9681.660000	1864.72300
9682.160000	1842.22240
9682.660000	1808.85210
9683.160000	1765.34360
9683.660000	1709.19280
9684.160000	1647.06180
9684.660000	1570.36400
9685.160000	1499.75440
9685.660000	1439.34060
9686.160000	1389.42500
9686.660000	1350.13500
9687.160000	1321.64190
9687.660000	1305.96840
9688.160000	1297.88790
9688.660000	1297.65510
9689.160000	1302.84430
9689.660000	1311.86400
9690.160000	1324.06220
9690.660000	1337.41190
9691.160000	1352.62780
9691.660000	1373.23440
9692.160000	1392.41960
9692.660000	1409.78380
9693.160000	1426.62610
9693.660000	1446.10900
9694.160000	1466.11420
9694.660000	1485.64040
9695.160000	1507.20740
9695.660000	1522.85820
9696.160000	1532.66870
9696.660000	1537.57730
9697.160000	1538.66790
9697.660000	1536.01520
9698.160000	1529.89260
9698.660000	1523.00450
9699.160000	1517.21890
9699.660000	1518.29940
9700.160000	1521.70490
9700.660000	1526.08110
9701.160000	1531.39820
9701.660000	1536.93200
9702.160000	1542.46700
9702.660000	1548.00210
9703.160000	1558.31600
9703.660000	1579.36530
9704.160000	1603.66670
9704.660000	1629.78370
9705.160000	1656.93390
9705.660000	1684.23270
9706.160000	1719.63700
9706.660000	1758.77840
9707.160000	1794.88310
9707.660000	1826.64180
9708.160000	1857.25100
9708.660000	1884.47130
9709.160000	1908.49460
9709.660000	1931.50520
9710.160000	1941.24710
9710.660000	1946.22630
9711.160000	1950.33560
9711.660000	1945.43380
9712.160000	1937.38300
9712.660000	1928.32830
9713.160000	1912.99790
9713.660000	1895.55330
9714.160000	1879.74960
9714.660000	1865.82210
9715.160000	1852.35280
9715.660000	1839.03410
9716.160000	1826.16040
9716.660000	1813.42370
9717.160000	1803.27010
9717.660000	1796.42100
9718.160000	1790.43580
9718.660000	1785.68300
9719.160000	1782.74540
9719.660000	1780.31850
9720.160000	1778.94100
9720.660000	1779.03460
9721.160000	1779.52520
9721.660000	1780.35610
9722.160000	1781.76250
9722.660000	1783.33200
9723.160000	1785.12790
9723.660000	1787.84440
9724.160000	1790.85660
9724.660000	1793.86480
9725.160000	1796.84900
9725.660000	1799.83460
9726.160000	1802.82330
9726.660000	1806.06800
9727.160000	1809.41270
9727.660000	1812.75890
9728.160000	1815.46080
9728.660000	1817.75980
9729.160000	1819.99630
9729.660000	1821.66970
9730.160000	1822.41490
9730.660000	1822.89240
9731.160000	1823.07920
9731.660000	1822.15100
9732.160000	1820.87150
9732.660000	1819.59360
9733.160000	1817.27350
9733.660000	1814.26320
9734.160000	1811.13290
9734.660000	1807.76060
9735.160000	1804.02660
9735.660000	1800.19140
9736.160000	1796.35480
9736.660000	1791.33890
9737.160000	1785.77150
9737.660000	1780.15470
9738.160000	1774.59160
9738.660000	1769.00630
9739.160000	1763.41090
9739.660000	1757.81180
9740.160000	1752.07100
9740.660000	1746.28770
9741.160000	1740.50680
9741.660000	1734.95030
9742.160000	1729.63170
9742.660000	1724.36760
9743.160000	1719.12190
9743.660000	1714.57550
9744.160000	1710.29660
9744.660000	1706.02650
9745.160000	1702.13470
9745.660000	1698.83070
9746.160000	1695.68850
9746.660000	1692.54700
9747.160000	1689.90270
9747.660000	1687.64640
9748.160000	1685.46410
9748.660000	1683.41480
9749.160000	1681.96490
9749.660000	1680.71970
9750.160000	1679.47830
9750.660000	1678.11790
9751.160000	1676.43930
9751.660000	1674.65560
9752.160000	1672.86920
9752.660000	1671.55540
9753.160000	1670.50030
9753.660000	1669.48170
9754.160000	1668.46450
9754.660000	1667.27040
9755.160000	1665.91020
9755.660000	1664.50980
9756.160000	1663.20110
9756.660000	1662.49290
9757.160000	1662.01140
9757.660000	1661.53950
9758.160000	1661.10310
9758.660000	1661.06690
9759.160000	1661.16820
9759.660000	1661.26980
9760.160000	1661.62290
9760.660000	1662.06430
9761.160000	1662.50580
9763.121400	1664.67550
9765.101900	1666.67970
9767.101500	1669.87730
9769.120100	1672.68720
9771.157700	1675.14170
9773.214400	1677.12010
9775.290100	1679.89600
9777.384900	1683.53060
9779.498800	1685.86770
9781.631700	1687.73590
9783.783600	1688.01550
9785.954600	1686.86860
9788.144700	1685.42990
9790.353700	1686.58780
9792.581900	1691.30500
9794.829100	1699.64740
9797.095300	1709.89590
9799.380600	1720.40140
9801.685000	1729.71340
9804.008300	1738.11630
9806.350800	1745.73450
9808.712300	1750.26860
9811.092800	1749.65320
9813.492400	1743.56120
9815.911100	1734.41520
9818.348700	1724.05000
9820.805500	1711.86860
9823.281300	1697.97650
9825.776100	1682.97650
9828.290000	1669.85290
9830.822900	1660.19300
9833.374900	1654.05780
9835.946000	1651.21850
9838.536100	1649.59800
9841.145200	1648.68030
9843.773400	1648.71860
9846.420600	1648.96760
9849.086900	1647.57610
9851.772300	1645.20170
9854.476700	1644.36300
9857.200100	1645.81690
9859.942600	1647.94590
9862.704100	1650.02990
9865.484700	1653.15000
9868.284400	1656.47730
9871.103000	1658.70730
9873.940800	1659.50090
9876.797600	1659.66670
9879.673400	1660.37250
9882.568300	1661.00330
9885.482200	1660.65050
9888.415200	1658.33590
9891.367300	1654.20440
9894.338400	1650.67570
9897.328500	1647.75880
9900.337700	1645.83710
9903.365900	1644.75480
9906.413200	1644.05440
9909.479600	1643.76590
9912.564900	1642.50300
9915.669400	1642.09170
9918.792900	1643.24690
9921.935400	1643.88010
9925.097000	1642.86730
9928.277600	1640.18990
9931.477300	1637.86590
9934.696100	1636.75060
9937.933800	1635.68940
9941.190700	1635.58650
9944.466600	1634.76840
9947.761500	1632.57050
9951.075500	1628.77860
9954.408500	1624.20390
9957.760600	1619.69860
9961.131800	1614.56070
9964.521900	1609.43670
9967.931200	1604.15940
9971.359500	1600.29360
9974.806800	1597.85430
9978.273200	1596.48810
9981.758600	1596.36030
9985.263100	1596.47300
9988.786600	1596.97810
9992.329200	1597.89460
9995.890900	1599.90280
9999.471600	1601.77870
10003.071000	1601.10350
10006.690000	1598.79030
10010.328000	1595.97070
10013.985000	1593.47300
10017.661000	1591.35500
10021.356000	1589.98510
10025.070000	1589.83720
10028.803000	1589.56580
10032.555000	1588.41210
10036.326000	1585.84860
10040.116000	1583.74490
10043.926000	1580.54200
10047.754000	1577.76640
10051.601000	1574.34720
10055.468000	1571.54680
10059.353000	1569.08980
10063.258000	1567.34760
10067.181000	1565.52050
10071.124000	1563.62750
10075.086000	1561.23670
10079.066000	1559.23850
10083.066000	1556.80500
10087.085000	1552.98490
10091.123000	1548.78030
10095.180000	1544.64330
10099.256000	1541.46380
10103.351000	1540.13420
10107.465000	1539.98990
10111.598000	1541.74510
10115.750000	1541.26290
10119.922000	1540.47750
10124.112000	1538.65180
10128.321000	1537.97750
10132.550000	1537.48780
10136.797000	1536.24910
10141.064000	1535.59200
10145.349000	1533.49090
10149.654000	1532.07100
10153.977000	1530.45860
10158.320000	1529.79970
10162.682000	1529.46940
10167.062000	1528.67110
10171.462000	1528.17220
10175.881000	1525.85850
10180.319000	1522.71200
10184.776000	1520.88320
10189.252000	1520.45870
10193.747000	1518.03640
10198.261000	1514.78090
10202.795000	1508.47200
10207.347000	1497.77360
10211.918000	1494.10090
10216.508000	1494.18320
10221.118000	1504.59940
10225.746000	1505.03000
10230.394000	1503.37640
10235.060000	1497.71440
10239.746000	1494.62090
10244.450000	1492.33510
10249.174000	1491.53740
10253.917000	1489.98500
10258.679000	1487.36870
10263.459000	1484.07590
10268.259000	1481.87500
10273.078000	1482.20810
10277.916000	1482.99090
10282.773000	1480.78180
10287.649000	1477.24540
10292.544000	1473.62100
10297.459000	1472.22820
10302.392000	1471.42580
10307.344000	1469.35320
10312.315000	1466.25930
10317.306000	1461.67670
10322.315000	1459.40950
10327.344000	1460.90050
10332.391000	1461.51090
10337.458000	1460.86840
10342.544000	1457.88800
10347.648000	1456.10810
10352.772000	1453.50870
10357.915000	1451.00770
10363.077000	1449.91650
10368.257000	1448.40190
10373.457000	1446.43290
10378.676000	1443.16690
10383.914000	1441.58600
10389.171000	1440.57480
10394.448000	1440.73770
10399.743000	1439.46410
