# XDI/1.0
# Column.1: energy(ev)
# Column.2: fluorescence_emission(au)
# Element.symbol: Zn
# Element.edge: K
# Mono.name: Si 2 2 0
# Mono.d_spacing: 1.92
# Beamline.name: FAME
# Sample.name: Pellet of ZnS Zn sulfide sphalerite mixed with BN
# Sample.temperature: 10.0 +/- 5.0 K
# Sample.pressure: None
# Citation.doi:  https://doi.org/10.26302/SSHADE/EXPERIMENT_ST_20180418_001
# Citation.comments: Thomas, Sara; Mishra, Bhoopesh (2018): Zn K edge XAS HERFD of Zn compounds at 10K for coordination determination in complex biological systems. SSHADE/FAME (OSUG Data Center). Dataset/Spectral Data. https://doi.org/10.26302/SSHADE/EXPERIMENT_ST_20180418_001Schmitt, Bernard; Bollard, Philippe; Albert, Damien; Garenne, Alexandre; Bonal, Lydie; and the SSHADE partner's consortium (2018). SSHADE: 'Solid Spectroscopy Hosting Architecture of Databases and Expertise'. OSUG Data Center. Service/Database infrastructure. https://doi.org/10.26302/SSHADE
# ////
#---------
# energy(ev)	fluorescence_emission(au)
9598.179820	2.73429
9604.419710	2.50404
9609.680180	2.39770
9614.789960	2.24143
9619.970320	2.46460
9624.979970	2.36717
9629.960060	2.13406
9630.629540	2.35682
9631.030080	2.30000
9631.549840	2.41464
9632.080080	2.41409
9632.559780	2.39646
9633.060460	2.35953
9633.540150	2.53273
9634.099960	2.37869
9634.539600	2.33632
9635.060310	2.35086
9635.560040	2.23438
9636.050220	2.46238
9636.569980	2.32359
9637.069700	2.30498
9637.570380	2.35649
9638.039590	2.39390
9638.560300	2.15295
9639.089580	2.35614
9639.590260	2.39626
9640.060420	2.40133
9640.569690	2.38666
9641.130450	2.23065
9641.539570	2.53059
9642.060280	2.41052
9642.560010	2.42677
9643.059730	2.47893
9643.569950	2.49354
9644.129750	2.57077
9644.539830	2.71558
9645.050050	2.49895
9645.560260	2.45468
9646.089550	2.50724
9646.579740	2.74272
9647.060390	2.60403
9647.620200	2.58817
9648.030280	2.81531
9648.579600	2.71918
9649.109840	2.90376
9649.580000	3.00293
9650.070190	3.28669
9650.580410	3.63167
9651.120190	3.54721
9651.550290	3.68993
9652.059560	4.46267
9652.569770	4.86653
9653.070450	5.72415
9653.599740	6.99167
9654.080390	8.40509
9654.620170	10.52231
9655.019760	12.68257
9655.570030	17.02786
9656.089780	22.59464
9656.570430	29.97673
9657.059670	40.03778
9657.580380	57.96857
9658.140180	83.65068
9658.550260	120.25186
9659.090040	215.17899
9659.580230	452.81734
9660.090450	1229.81809
9660.590170	3551.67892
9661.120410	8846.75880
9661.520000	14731.57100
9662.059780	18086.82130
9662.579540	16761.53810
9663.089750	15896.11280
9663.579940	17515.19590
9664.070130	20615.07130
9664.580350	22328.93940
9665.069580	21220.50760
9665.570260	18143.38280
9666.069980	14455.90920
9666.560170	11552.22460
9667.079930	10266.77690
9667.599680	10157.88530
9668.160440	10932.74390
9668.519970	12123.31360
9669.059750	13590.04450
9669.599530	13424.06300
9670.100210	12162.36960
9670.570370	11405.99000
9671.070100	11678.90330
9671.609880	12556.69200
9672.019960	13208.21090
9672.599790	13787.46990
9673.089980	13946.00200
9673.580170	13926.60100
9674.059870	13731.24900
9674.579620	13389.97730
9675.120350	13087.87110
9675.539970	12915.43460
9676.039700	12884.37970
9676.589970	13044.49210
9677.109720	13154.59760
9677.599910	13125.32210
9678.099630	12982.22640
9678.560260	12723.40360
9679.070470	12401.45850
9679.599760	12035.14310
9680.080410	11699.39990
9680.560110	11409.99900
9681.059840	11238.24580
9681.630130	11187.40780
9682.049750	11211.35110
9682.570460	11292.36290
9683.079720	11407.89920
9683.569910	11563.82130
9684.080120	11714.38040
9684.590340	11834.16650
9685.130120	11930.68790
9685.520170	12011.49490
9686.059950	12090.01260
9686.599730	12226.69340
9687.100410	12385.48310
9687.589650	12466.66800
9688.050270	12576.61830
9688.619610	12679.62750
9689.069750	12674.05720
9689.570430	12607.15620
9690.059660	12487.39880
9690.560340	12310.21500
9691.080090	12078.06190
9691.590310	11826.22750
9692.139630	11528.13810
9692.529680	11276.06560
9693.050380	10959.35890
9693.579670	10729.79250
9694.089890	10575.88960
9694.569590	10474.91750
9695.070270	10450.27800
9695.619580	10446.02620
9696.049690	10451.00690
9696.590420	10463.70560
9697.099690	10384.76880
9697.580340	10324.15170
9698.080060	10273.61570
9698.590280	10206.24220
9699.110030	10155.44550
9699.549670	10178.23290
9700.059890	10191.83500
9701.290130	10261.11870
9703.960420	10565.92840
9705.140110	10823.43830
9706.620220	11232.14220
9707.850460	11699.27560
9709.289550	12012.65800
9710.590360	11945.98680
9712.050440	11744.95460
9713.549610	11537.60740
9714.770320	11504.83330
9716.429710	11596.88870
9717.860220	11856.21290
9719.329830	12263.80670
9720.859530	12606.20520
9722.379680	12839.93520
9724.010470	12939.83190
9725.489620	12958.16550
9727.140430	13006.44200
9728.719710	12898.96240
9730.360030	12563.68850
9731.980320	12250.88880
9733.719830	12049.17690
9735.329630	11876.87060
9737.130170	11677.38560
9738.730430	11462.30530
9740.570070	11390.66980
9742.280010	11333.18940
9744.110110	11231.13120
9745.849610	11035.08570
9747.730260	10848.57300
9749.500270	10721.45360
9751.390460	10747.65120
9753.230090	10867.97420
9755.279540	11049.59910
9757.020000	11211.46780
9758.990290	11289.96970
9760.930060	11165.58610
9762.960430	10915.71120
9764.949800	10687.89850
9766.909600	10537.56650
9769.029620	10573.00580
9770.899770	10705.12680
9773.050310	11012.53900
9775.179860	11526.35440
9777.279850	11955.05980
9779.399870	12124.43800
9781.439780	12050.07450
9783.729550	11977.29300
9785.840030	12002.21960
9788.029670	12204.24670
9790.280340	12359.70010
9792.440410	12285.77840
9794.859890	11976.36130
9796.999930	11643.97680
9799.240110	11374.51520
9801.619530	11137.00850
9804.019930	10890.15000
9806.229590	10717.86890
9808.620450	10715.34040
9811.079980	10772.40870
9813.449860	10856.22770
9815.970420	10972.82350
9818.269730	11151.14140
9820.719720	11439.63260
9823.269840	11522.84840
9825.840000	11356.74390
9828.240390	11137.69240
9830.849650	11013.19960
9833.310130	10992.48390
9836.000440	10957.52200
9838.500020	10914.26120
9841.190340	10771.06210
9843.770030	10603.34530
9846.380230	10522.30440
9849.089620	10553.29800
9851.810460	10685.33940
9854.539870	10811.03100
9857.179640	10943.37470
9860.039710	11141.47480
9862.730030	11361.93940
9865.550040	11597.58870
9868.220330	11654.17910
9871.089940	11490.36680
9874.030110	11329.53390
9876.830100	11271.07090
9879.730220	11334.88730
9882.599830	11386.92290
9885.609630	11333.95300
9888.420100	11051.48540
9891.320230	10800.44470
9894.439700	10567.73540
9897.370340	10405.39220
9900.340080	10327.37700
9903.470040	10416.25110
9906.450270	10638.17240
9909.589770	10817.02310
9912.570000	10921.82990
9915.630340	10852.63130
9918.769840	10764.50390
9921.990390	10711.36730
9925.279620	10725.24660
9928.270340	10750.79840
9931.469920	10791.70550
9934.729580	10804.08590
9937.919620	10714.53460
9941.149710	10707.91060
9944.589610	10637.74770
9947.799680	10536.43110
9950.960160	10440.85370
9954.560280	10444.00030
9957.690240	10584.25880
9961.059570	10733.36270
9964.559560	10758.47830
9967.820170	10725.78650
9971.309660	10758.42850
9974.800110	10725.29320
9978.289600	10742.93100
9981.599810	10664.92500
9985.239980	10656.35930
9988.599780	10705.54380
9992.150310	10745.96620
9995.860100	10699.66130
9999.309540	10618.81360
10002.900100	10491.11470
10006.799700	10375.97490
10010.100400	10268.17190
10013.799700	10267.76240
10017.499900	10280.71810
10021.300300	10315.94410
10024.900400	10277.53210
10028.499600	10210.39840
10032.400100	10167.61130
10036.100400	10220.55910
10039.899800	10320.91820
10043.600100	10357.59390
10047.599800	10427.67820
10051.400200	10448.86380
10055.299800	10448.46230
10059.100200	10386.57180
10062.999700	10313.85250
10066.800100	10298.10740
10070.799800	10282.78760
10074.799500	10252.91990
10078.900300	10209.66460
10082.699800	10186.02730
10086.899800	10159.07520
10090.700100	10228.99370
10095.000300	10263.73700
10098.799700	10190.54400
10102.999700	10146.62450
10107.099500	10091.64510
10111.300500	10042.69520
10115.400300	10033.88870
10119.500200	10096.07960
10123.600000	10154.46000
10127.900100	10170.55220
10132.200200	10136.89400
10136.400200	10102.70120
10140.700300	10017.37420
10144.900300	9946.36484
10149.299600	9875.60819
10153.499600	9850.02061
10157.799700	9856.37709
10162.300100	9831.46045
10166.500100	9859.74222
10170.999500	9861.41553
10175.299600	9852.56935
10179.699900	9859.78076
10184.399600	9875.28949
10188.699700	9892.35645
10192.999800	9939.93531
10197.600400	9959.17334
10202.199900	9945.89025
10206.700300	9961.97119
10211.199800	9949.45809
10215.999600	9863.31627
10220.399900	9842.52916
10225.099600	9809.17579
10229.600000	9773.91289
10234.299700	9737.82560
10239.100500	9724.47314
10243.499800	9754.70212
10248.499900	9699.57244
10253.000300	9711.24378
10257.800100	9712.11137
10262.599900	9717.65527
10267.499900	9709.32970
10272.199600	9708.02567
10276.900300	9656.64844
10281.999600	9647.39872
10286.700200	9653.33252
10291.600200	9638.99756
10296.500200	9639.91992
