# XDI/1.0
# Column.1: energy(ev)
# Column.2: fluorescence_emission(au)
# Element.symbol: Zn
# Element.edge: K
# Mono.name: Si 2 2 0
# Mono.d_spacing: 1.92
# Beamline.name: FAME
# Sample.name: Frozen solution of ZnCys4 peptide
# Sample.temperature: 10.0 +/- 5.0 K
# Sample.pressure: None
# Citation.doi:  https://doi.org/10.26302/SSHADE/EXPERIMENT_ST_20180418_001
# Citation.comments: Thomas, Sara; Mishra, Bhoopesh (2018): Zn K edge XAS HERFD of Zn compounds at 10K for coordination determination in complex biological systems. SSHADE/FAME (OSUG Data Center). Dataset/Spectral Data. https://doi.org/10.26302/SSHADE/EXPERIMENT_ST_20180418_001Schmitt, Bernard; Bollard, Philippe; Albert, Damien; Garenne, Alexandre; Bonal, Lydie; and the SSHADE partner's consortium (2018). SSHADE: 'Solid Spectroscopy Hosting Architecture of Databases and Expertise'. OSUG Data Center. Service/Database infrastructure. https://doi.org/10.26302/SSHADE
# ////
#---------
# energy(ev)	fluorescence_emission(au)
9512.160000	2.06692
9512.660000	2.06489
9513.160000	2.06286
9513.660000	2.06083
9514.160000	2.05880
9514.660000	2.05677
9515.160000	2.05474
9515.660000	2.05271
9516.160000	2.05068
9516.660000	2.04865
9517.160000	2.04663
9517.660000	2.04460
9518.160000	2.04257
9518.660000	2.04054
9519.160000	2.03851
9519.660000	2.03648
9520.160000	2.03445
9520.660000	2.03242
9521.160000	2.03039
9521.660000	2.02836
9522.160000	2.02633
9522.660000	2.02430
9523.160000	2.02227
9523.660000	2.02025
9524.160000	2.01822
9524.660000	2.01619
9525.160000	2.01416
9525.660000	2.01213
9526.160000	2.01010
9526.660000	2.00807
9527.160000	2.00604
9527.660000	2.00401
9528.160000	2.00198
9528.660000	1.99995
9529.160000	1.99792
9529.660000	1.99589
9530.160000	1.99386
9530.660000	1.99184
9531.160000	1.98981
9531.660000	1.98778
9532.160000	1.98575
9532.660000	1.98372
9533.160000	1.98169
9533.660000	1.97966
9534.160000	1.97763
9534.660000	1.97560
9535.160000	1.97357
9535.660000	1.97154
9536.160000	1.96951
9536.660000	1.96748
9537.160000	1.96545
9537.660000	1.96343
9538.160000	1.96140
9538.660000	1.95937
9539.160000	1.95734
9539.660000	1.95531
9540.160000	1.95328
9540.660000	1.95125
9541.160000	1.94922
9541.660000	1.94719
9542.160000	1.94516
9542.660000	1.94313
9543.160000	1.94110
9543.660000	1.93907
9544.160000	1.93705
9544.660000	1.93502
9545.160000	1.93299
9545.660000	1.93096
9546.160000	1.92893
9546.660000	1.92690
9547.160000	1.92487
9547.660000	1.92284
9548.160000	1.92081
9548.660000	1.91878
9549.160000	1.91675
9549.660000	1.91472
9550.160000	1.91269
9550.660000	1.91067
9551.160000	1.90864
9551.660000	1.90661
9552.160000	1.90458
9552.660000	1.90255
9553.160000	1.90052
9553.660000	1.89849
9554.160000	1.89646
9554.660000	1.89443
9555.160000	1.89240
9555.660000	1.89037
9556.160000	1.88834
9556.660000	1.88631
9557.160000	1.88428
9557.660000	1.88226
9558.160000	1.88023
9558.660000	1.87820
9559.160000	1.87617
9559.660000	1.87414
9560.160000	1.87211
9560.660000	1.87008
9561.160000	1.86805
9561.660000	1.86602
9562.160000	1.86399
9562.660000	1.86196
9563.160000	1.85993
9563.660000	1.85790
9564.160000	1.85587
9564.660000	1.85385
9565.160000	1.85182
9565.660000	1.84979
9566.160000	1.84776
9566.660000	1.84573
9567.160000	1.84370
9567.660000	1.84167
9568.160000	1.83964
9568.660000	1.83761
9569.160000	1.83558
9569.660000	1.83355
9570.160000	1.83152
9570.660000	1.82949
9571.160000	1.82747
9571.660000	1.82544
9572.160000	1.82341
9572.660000	1.82138
9573.160000	1.81935
9573.660000	1.81732
9574.160000	1.81529
9574.660000	1.81326
9575.160000	1.81123
9575.660000	1.80920
9576.160000	1.80717
9576.660000	1.80514
9577.160000	1.80311
9577.660000	1.80108
9578.160000	1.79906
9578.660000	1.79703
9579.160000	1.79500
9579.660000	1.79297
9580.160000	1.79094
9580.660000	1.78891
9581.160000	1.78688
9581.660000	1.78485
9582.160000	1.78282
9582.660000	1.78079
9583.160000	1.77876
9583.660000	1.77673
9584.160000	1.77470
9584.660000	1.77268
9585.160000	1.77065
9585.660000	1.76862
9586.160000	1.76659
9586.660000	1.76456
9587.160000	1.76253
9587.660000	1.76050
9588.160000	1.75847
9588.660000	1.75644
9589.160000	1.75441
9589.660000	1.75238
9590.160000	1.75035
9590.660000	1.74832
9591.160000	1.74629
9591.660000	1.74427
9592.160000	1.74224
9592.660000	1.74021
9593.160000	1.73818
9593.660000	1.73615
9594.160000	1.73412
9594.660000	1.73209
9595.160000	1.73006
9595.660000	1.72803
9596.160000	1.72600
9596.660000	1.72397
9597.160000	1.72194
9597.660000	1.71991
9598.160000	1.71789
9598.660000	1.71586
9599.160000	1.71383
9599.660000	1.71180
9600.160000	1.70977
9600.660000	1.70774
9601.160000	1.70571
9601.660000	1.70368
9602.160000	1.70165
9602.660000	1.69962
9603.160000	1.69759
9603.660000	1.69556
9604.160000	1.69353
9604.660000	1.69150
9605.160000	1.68948
9605.660000	1.68745
9606.160000	1.68542
9606.660000	1.68339
9607.160000	1.68136
9607.660000	1.67933
9608.160000	1.67730
9608.660000	1.67525
9609.160000	1.67295
9609.660000	1.67053
9610.160000	1.66812
9610.660000	1.66570
9611.160000	1.66328
9611.660000	1.66086
9612.160000	1.65844
9612.660000	1.65602
9613.160000	1.65360
9613.660000	1.65119
9614.160000	1.64867
9614.660000	1.64608
9615.160000	1.64348
9615.660000	1.64087
9616.160000	1.63826
9616.660000	1.63566
9617.160000	1.63305
9617.660000	1.63044
9618.160000	1.62784
9618.660000	1.62522
9619.160000	1.62287
9619.660000	1.62067
9620.160000	1.61848
9620.660000	1.61629
9621.160000	1.61410
9621.660000	1.61191
9622.160000	1.60972
9622.660000	1.60753
9623.160000	1.60534
9623.660000	1.60315
9624.160000	1.60109
9624.660000	1.59980
9625.160000	1.59852
9625.660000	1.59723
9626.160000	1.59594
9626.660000	1.59466
9627.160000	1.59337
9627.660000	1.59209
9628.160000	1.59080
9628.660000	1.58948
9629.160000	1.58707
9629.660000	1.57989
9630.160000	1.58608
9630.660000	1.59917
9631.160000	1.59790
9631.660000	1.57315
9632.160000	1.57278
9632.660000	1.59880
9633.160000	1.60534
9633.660000	1.59415
9634.160000	1.57273
9634.660000	1.57983
9635.160000	1.58469
9635.660000	1.59317
9636.160000	1.57936
9636.660000	1.57085
9637.160000	1.55330
9637.660000	1.55942
9638.160000	1.54818
9638.660000	1.55611
9639.160000	1.56087
9639.660000	1.56986
9640.160000	1.57098
9640.660000	1.56229
9641.160000	1.57241
9641.660000	1.57040
9642.160000	1.56250
9642.660000	1.55856
9643.160000	1.54059
9643.660000	1.54894
9644.160000	1.55976
9644.660000	1.58909
9645.160000	1.59817
9645.660000	1.58549
9646.160000	1.57086
9646.660000	1.55626
9647.160000	1.55046
9647.660000	1.55174
9648.160000	1.55175
9648.660000	1.56611
9649.160000	1.58216
9649.660000	1.60593
9650.160000	1.61300
9650.660000	1.61673
9651.160000	1.62273
9651.660000	1.64716
9652.160000	1.66615
9652.660000	1.69103
9653.160000	1.71679
9653.660000	1.76470
9654.160000	1.85630
9654.660000	1.94168
9655.160000	2.08419
9655.660000	2.29876
9656.160000	2.65798
9656.660000	3.23039
9657.160000	4.03624
9657.660000	5.61728
9658.160000	8.71950
9658.660000	17.25614
9659.160000	40.42054
9659.660000	98.22019
9660.160000	207.24866
9660.660000	392.39153
9661.160000	567.16709
9661.660000	707.87700
9662.160000	788.19377
9662.660000	811.79717
9663.160000	786.11961
9663.660000	733.02566
9664.160000	668.33864
9664.660000	618.79024
9665.160000	590.31900
9665.660000	582.72354
9666.160000	590.65149
9666.660000	606.00656
9667.160000	620.14888
9667.660000	631.50414
9668.160000	633.48008
9668.660000	628.90168
9669.160000	618.46387
9669.660000	603.87764
9670.160000	588.84104
9670.660000	575.33118
9671.160000	562.55903
9671.660000	553.19705
9672.160000	544.57223
9672.660000	536.51198
9673.160000	528.80824
9673.660000	522.38656
9674.160000	516.82088
9674.660000	511.58304
9675.160000	508.20560
9675.660000	505.98904
9676.160000	505.80705
9676.660000	506.90094
9677.160000	509.22537
9677.660000	512.34456
9678.160000	515.49088
9678.660000	518.31994
9679.160000	520.97950
9679.660000	522.83827
9680.160000	523.59941
9680.660000	523.58035
9681.160000	522.84432
9681.660000	521.70050
9682.160000	520.00450
9682.660000	518.47126
9683.160000	516.66563
9683.660000	515.51672
9684.160000	514.36597
9684.660000	513.34003
9685.160000	511.73596
9685.660000	509.66555
9686.160000	507.30007
9686.660000	504.20930
9687.160000	501.00431
9687.660000	498.03384
9688.160000	494.33019
9688.660000	490.44365
9689.160000	486.78138
9689.660000	483.15992
9690.160000	479.16950
9690.660000	475.22164
9691.160000	471.86882
9691.660000	467.97801
9692.160000	464.19609
9692.660000	460.48053
9693.160000	457.22795
9693.660000	454.06554
9694.160000	451.59412
9694.660000	449.36759
9695.160000	447.17950
9695.660000	444.83555
9696.160000	442.99745
9696.660000	441.46245
9697.160000	440.59364
9697.660000	439.55152
9698.160000	438.80178
9698.660000	438.49082
9699.160000	439.46957
9699.660000	441.31446
9700.160000	443.17186
9700.660000	444.72116
9701.160000	446.00404
9701.660000	447.28617
9702.160000	448.56829
9702.660000	449.85639
9703.160000	451.79850
9703.660000	454.99176
9704.160000	458.18613
9704.660000	460.99671
9705.160000	463.64113
9705.660000	466.28676
9706.160000	469.28874
9706.660000	472.34326
9707.160000	475.19119
9707.660000	477.74170
9708.160000	480.29022
9708.660000	482.92089
9709.160000	485.60749
9709.660000	488.29465
9710.160000	490.55379
9710.660000	492.78878
9711.160000	495.02586
9711.660000	497.10795
9712.160000	499.19096
9712.660000	501.25918
9713.160000	503.23681
9713.660000	505.21173
9714.160000	507.09597
9714.660000	508.85397
9715.160000	510.61193
9715.660000	512.38812
9716.160000	514.23376
9716.660000	516.07565
9717.160000	517.69519
9717.660000	519.05145
9718.160000	520.40691
9718.660000	521.65036
9719.160000	522.70968
9719.660000	523.76709
9720.160000	524.75172
9720.660000	525.62353
9721.160000	526.49605
9721.660000	527.30045
9722.160000	528.02099
9722.660000	528.74002
9723.160000	529.37416
9723.660000	529.65158
9724.160000	529.92893
9724.660000	530.18950
9725.160000	530.10613
9725.660000	530.01867
9726.160000	529.92781
9726.660000	529.57124
9727.160000	529.14592
9727.660000	528.71973
9728.160000	528.13811
9728.660000	527.48610
9729.160000	526.83300
9729.660000	526.12377
9730.160000	525.31875
9730.660000	524.51323
9731.160000	523.64048
9731.660000	522.41855
9732.160000	521.19533
9732.660000	519.96930
9733.160000	518.54588
9733.660000	517.06158
9734.160000	515.57692
9734.660000	513.98704
9735.160000	512.18839
9735.660000	510.38894
9736.160000	508.58599
9736.660000	506.45007
9737.160000	504.27925
9737.660000	502.10785
9738.160000	499.92181
9738.660000	497.72009
9739.160000	495.51861
9739.660000	493.31171
9740.160000	490.69472
9740.660000	488.06568
9741.160000	485.43819
9741.660000	483.02830
9742.160000	480.79056
9742.660000	478.55354
9743.160000	476.32190
9743.660000	474.38075
9744.160000	472.45106
9744.660000	470.52241
9745.160000	468.75545
9745.660000	467.31384
9746.160000	465.87396
9746.660000	464.43793
9747.160000	463.28135
9747.660000	462.28188
9748.160000	461.28261
9748.660000	460.30977
9749.160000	459.60284
9749.660000	458.89592
9750.160000	458.18986
9750.660000	457.59416
9751.160000	457.22344
9751.660000	456.85326
9752.160000	456.48535
9752.660000	456.28063
9753.160000	456.17116
9753.660000	456.06205
9754.160000	455.95443
9754.660000	456.06167
9755.160000	456.28280
9755.660000	456.50451
9756.160000	456.72935
9756.660000	457.19094
9757.160000	457.66708
9757.660000	458.14316
9758.160000	458.63648
9758.660000	459.27164
9759.160000	459.90636
9759.660000	460.54158
9760.160000	461.18371
9760.660000	461.84996
9761.160000	462.52000
9763.121400	465.27635
9765.101900	468.50800
9767.101500	472.13425
9769.120100	475.84337
9771.157700	479.46959
9773.214400	483.16505
9775.290100	486.81316
9777.384900	489.93948
9779.498800	492.49957
9781.631700	494.51923
9783.783600	496.24246
9785.954600	497.49656
9788.144700	498.20678
9790.353700	498.09524
9792.581900	497.57082
9794.829100	496.43773
9797.095300	494.78697
9799.380600	492.11035
9801.685000	488.91082
9804.008300	485.50171
9806.350800	481.99807
9808.712300	478.68786
9811.092800	475.21560
9813.492400	472.07229
9815.911100	469.06186
9818.348700	466.57650
9820.805500	464.46400
9823.281300	462.85530
9825.776100	461.67789
9828.290000	460.97608
9830.822900	460.85926
9833.374900	461.15114
9835.946000	461.74981
9838.536100	462.34615
9841.145200	463.35494
9843.773400	464.55689
9846.420600	466.02258
9849.086900	467.47542
9851.772300	468.66077
9854.476700	469.65410
9857.200100	470.44531
9859.942600	471.33445
9862.704100	471.79260
9865.484700	471.97937
9868.284400	471.98461
9871.103000	471.96266
9873.940800	471.76174
9876.797600	471.10267
9879.673400	470.28080
9882.568300	469.25709
9885.482200	468.10804
9888.415200	466.76298
9891.367300	465.09196
9894.338400	463.24415
9897.328500	461.47726
9900.337700	460.15018
9903.365900	458.86063
9906.413200	457.28033
9909.479600	455.44081
9912.564900	453.84386
9915.669400	452.39028
9918.792900	451.43834
9921.935400	450.78942
9925.097000	450.38875
9928.277600	450.10306
9931.477300	450.14170
9934.696100	450.32947
9937.933800	450.43595
9941.190700	450.48081
9944.466600	450.49494
9947.761500	450.73878
9951.075500	450.91168
9954.408500	451.45864
9957.760600	452.09293
9961.131800	452.42450
9964.521900	452.33090
9967.931200	451.88184
9971.359500	451.15637
9974.806800	450.65135
9978.273200	449.82503
9981.758600	449.10835
9985.263100	448.02013
9988.786600	447.10959
9992.329200	446.34947
9995.890900	445.28103
9999.471600	444.15941
10003.071000	443.03654
10006.690000	442.23258
10010.328000	441.32909
10013.985000	440.58716
10017.661000	439.80177
10021.356000	439.05805
10025.070000	437.98308
10028.803000	437.10463
10032.555000	436.56754
10036.326000	436.44372
10040.116000	436.10788
10043.926000	435.76163
10047.754000	435.42016
10051.601000	435.28505
10055.468000	434.85050
10059.353000	434.52739
10063.258000	434.21266
10067.181000	434.07842
10071.124000	433.83778
10075.086000	433.51668
10079.066000	433.43588
10083.066000	433.10895
10087.085000	432.47210
10091.123000	431.55294
10095.180000	430.77932
10099.256000	430.38794
10103.351000	429.68687
10107.465000	428.82300
10111.598000	427.64247
10115.750000	426.69242
10119.922000	425.78632
10124.112000	425.21478
10128.321000	424.37357
10132.550000	423.68532
10136.797000	422.77952
10141.064000	422.19691
10145.349000	421.49385
10149.654000	420.96333
10153.977000	420.48940
10158.320000	420.12366
10162.682000	419.69491
10167.062000	419.02423
10171.462000	418.42745
10175.881000	417.95632
10180.319000	417.68208
10184.776000	417.57798
10189.252000	417.46632
10193.747000	417.53798
10198.261000	417.40907
10202.795000	417.66986
10207.347000	418.28989
10211.918000	417.80119
10216.508000	416.55187
10221.118000	414.54366
10225.746000	413.61515
10230.394000	413.23164
10235.060000	413.21633
10239.746000	413.35261
10244.450000	413.19954
10249.174000	412.66300
10253.917000	411.71376
10258.679000	410.49891
10263.459000	409.55033
10268.259000	408.84567
10273.078000	408.44263
10277.916000	408.06389
10282.773000	407.71249
10287.649000	407.28133
10292.544000	406.61529
10297.459000	405.86755
10302.392000	405.22173
10307.344000	405.04642
10312.315000	405.06124
10317.306000	404.66513
10322.315000	403.80151
10327.344000	402.81410
10332.391000	402.25168
10337.458000	401.88081
10342.544000	401.43517
10347.648000	401.00388
10352.772000	400.46492
10357.915000	400.02071
10363.077000	399.65402
10368.257000	399.38579
10373.457000	398.96451
10378.676000	398.32157
10383.914000	397.70042
10389.171000	397.17509
10394.448000	396.79473
10399.743000	396.12489
