# XDI/1.0
# Column.1: energy(ev)
# Column.2: transmission(au)
# Element.symbol: W
# Element.edge: L3
# Mono.name: Si 2 2 0
# Mono.d_spacing: 1.92
# Beamline.name: FAME
# Sample.name: Pellet of Na2WO4â€¢2(H2O) mixed with BN
# Sample.temperature: 10.0 +/- 1.0 K
# Sample.pressure: None
# Citation.doi:  https://doi.org/10.26302/SSHADE/EXPERIMENT_OP_20201209_001
# Citation.comments: Proux, Olivier (2020): W L3 edge XAS transmission and XAS fluorescence of W reference compounds at 10K. SSHADE/FAME (OSUG Data Center). Dataset/Spectral Data. https://doi.org/10.26302/SSHADE/EXPERIMENT_OP_20201209_001Schmitt, Bernard; Bollard, Philippe; Albert, Damien; Garenne, Alexandre; Bonal, Lydie; and the SSHADE partner's consortium (2018). SSHADE: 'Solid Spectroscopy Hosting Architecture of Databases and Expertise'. OSUG Data Center. Service/Database infrastructure. https://doi.org/10.26302/SSHADE
# ////
#---------
# energy(ev)	transmission(au)
10052.650000	1.62942
10056.350000	1.62727
10059.350000	1.62399
10062.450000	1.62243
10065.450000	1.62044
10068.550000	1.62018
10071.450000	1.61813
10074.450000	1.61649
10077.450000	1.61481
10080.450000	1.61441
10083.550000	1.61238
10086.550000	1.61144
10089.650000	1.61035
10092.650000	1.60819
10095.650000	1.60674
10098.750000	1.60510
10101.650000	1.60356
10104.750000	1.60292
10107.750000	1.60083
10110.750000	1.59938
10113.750000	1.59781
10116.650000	1.59705
10119.750000	1.59697
10122.650000	1.59450
10125.750000	1.59312
10128.750000	1.59261
10131.750000	1.59089
10134.750000	1.58951
10137.650000	1.58788
10140.750000	1.58757
10143.750000	1.58727
10146.750000	1.58611
10149.750000	1.58336
10152.750000	1.58159
10155.750000	1.58065
10158.650000	1.58055
10161.750000	1.58062
10164.750000	1.57966
10167.750000	1.57939
10168.250000	1.57924
10168.350000	1.57855
10168.650000	1.57887
10168.950000	1.57832
10169.250000	1.57901
10169.550000	1.57926
10169.850000	1.57959
10170.150000	1.57928
10170.450000	1.57912
10170.750000	1.57966
10171.050000	1.57983
10171.350000	1.57899
10171.650000	1.57895
10171.950000	1.57878
10172.250000	1.57920
10172.550000	1.57894
10172.850000	1.57942
10173.150000	1.57915
10173.450000	1.57920
10173.750000	1.58001
10174.050000	1.57960
10174.350000	1.57895
10174.650000	1.57901
10174.950000	1.57955
10175.250000	1.57960
10175.550000	1.57997
10175.850000	1.58095
10176.150000	1.58039
10176.450000	1.57980
10176.750000	1.58014
10177.050000	1.58020
10177.350000	1.58106
10177.650000	1.58052
10177.950000	1.57991
10178.250000	1.58147
10178.550000	1.58142
10178.850000	1.58203
10179.150000	1.58258
10179.450000	1.58289
10179.750000	1.58311
10180.050000	1.58290
10180.350000	1.58243
10180.650000	1.58287
10180.950000	1.58403
10181.250000	1.58327
10181.550000	1.58346
10181.850000	1.58349
10182.150000	1.58337
10182.450000	1.58451
10182.750000	1.58487
10183.050000	1.58561
10183.350000	1.58637
10183.650000	1.58629
10183.950000	1.58614
10184.250000	1.58635
10184.550000	1.58657
10184.850000	1.58730
10185.150000	1.58784
10185.450000	1.58840
10185.750000	1.58999
10186.050000	1.59002
10186.350000	1.59069
10186.650000	1.59166
10186.950000	1.59294
10187.250000	1.59351
10187.550000	1.59340
10187.850000	1.59363
10188.150000	1.59368
10188.450000	1.59511
10188.750000	1.59592
10189.050000	1.59739
10189.350000	1.59841
10189.650000	1.59837
10189.950000	1.59932
10190.250000	1.60041
10190.550000	1.60123
10190.850000	1.60187
10191.150000	1.60313
10191.450000	1.60498
10191.750000	1.60589
10192.050000	1.60738
10192.350000	1.60817
10192.650000	1.60983
10192.950000	1.61073
10193.250000	1.61138
10193.550000	1.61246
10193.850000	1.61439
10194.150000	1.61602
10194.450000	1.61751
10194.750000	1.62056
10195.050000	1.62278
10195.350000	1.62450
10195.650000	1.62724
10195.950000	1.62930
10196.250000	1.63145
10196.550000	1.63337
10196.850000	1.63614
10197.150000	1.63770
10197.450000	1.64096
10197.750000	1.64340
10198.050000	1.64720
10198.350000	1.65054
10198.650000	1.65324
10198.950000	1.65764
10199.250000	1.66234
10199.550000	1.66667
10199.850000	1.67109
10200.150000	1.67588
10200.450000	1.68202
10200.750000	1.68765
10201.050000	1.69467
10201.350000	1.70143
10201.650000	1.70816
10201.950000	1.71583
10202.250000	1.72465
10202.550000	1.73479
10202.850000	1.74284
10203.150000	1.75242
10203.450000	1.76365
10203.750000	1.77576
10204.050000	1.78808
10204.350000	1.80372
10204.650000	1.82166
10204.950000	1.83958
10205.250000	1.85981
10205.550000	1.88193
10205.850000	1.90636
10206.150000	1.93254
10206.450000	1.96527
10206.750000	2.00000
10207.050000	2.03816
10207.350000	2.08266
10207.650000	2.13344
10207.950000	2.19044
10208.250000	2.24466
10208.550000	2.31278
10208.850000	2.38639
10209.150000	2.46985
10209.450000	2.56500
10209.750000	2.67080
10210.050000	2.78766
10210.350000	2.90368
10210.650000	3.03267
10210.950000	3.16132
10211.250000	3.28984
10211.550000	3.41031
10211.850000	3.51970
10212.150000	3.61516
10212.450000	3.69069
10212.750000	3.75752
10213.050000	3.81136
10213.350000	3.83739
10213.650000	3.82527
10213.950000	3.78763
10214.250000	3.73203
10214.550000	3.66279
10214.850000	3.56666
10215.150000	3.45594
10215.450000	3.33340
10215.750000	3.20638
10216.050000	3.09467
10216.350000	2.99754
10216.650000	2.92200
10216.950000	2.84464
10217.250000	2.77453
10217.550000	2.71519
10217.850000	2.67009
10218.150000	2.63376
10218.450000	2.60044
10218.750000	2.57896
10219.050000	2.55948
10219.350000	2.54481
10219.850000	2.52790
10220.050000	2.52059
10221.250000	2.50481
10222.150000	2.49625
10222.850000	2.48761
10223.650000	2.47734
10224.450000	2.46041
10225.250000	2.43788
10226.050000	2.40708
10226.850000	2.37546
10227.750000	2.34308
10228.650000	2.31632
10229.550000	2.29769
10230.450000	2.28379
10231.350000	2.27622
10232.250000	2.27453
10233.250000	2.27193
10234.350000	2.26888
10235.350000	2.26371
10236.350000	2.25378
10237.450000	2.23782
10238.450000	2.21773
10239.550000	2.19538
10240.650000	2.17743
10241.750000	2.16392
10242.850000	2.15098
10244.050000	2.14619
10245.250000	2.14523
10246.550000	2.15000
10247.650000	2.15396
10248.950000	2.16210
10250.150000	2.16988
10251.450000	2.17712
10252.750000	2.18797
10254.050000	2.19606
10255.350000	2.20456
10256.750000	2.21050
10258.150000	2.21790
10259.550000	2.21934
10260.850000	2.22496
10262.350000	2.22641
10263.750000	2.22977
10265.250000	2.23332
10266.650000	2.23717
10268.250000	2.24232
10269.750000	2.24816
10271.250000	2.25089
10272.850000	2.25623
10274.450000	2.26121
10275.950000	2.26569
10277.650000	2.26998
10279.250000	2.27425
10280.950000	2.27816
10282.550000	2.27730
10284.350000	2.27891
10285.950000	2.27781
10287.650000	2.27585
10289.450000	2.27124
10291.250000	2.26929
10292.950000	2.25807
10294.850000	2.25499
10296.650000	2.24249
10298.450000	2.24055
10300.350000	2.23253
10302.250000	2.23157
10304.050000	2.22684
10306.050000	2.22072
10307.950000	2.21535
10309.850000	2.21010
10311.950000	2.20561
10313.850000	2.19783
10315.850000	2.19602
10317.950000	2.19589
10319.950000	2.19418
10322.050000	2.19754
10324.150000	2.19372
10326.250000	2.19337
10328.350000	2.19074
10330.450000	2.18917
10332.650000	2.18777
10334.850000	2.19081
10337.050000	2.18995
10339.250000	2.18993
10341.450000	2.19157
10343.750000	2.19533
10346.050000	2.19358
10348.250000	2.19685
10350.650000	2.19300
10352.950000	2.20029
10355.350000	2.20094
10357.750000	2.20146
10360.050000	2.20729
10362.450000	2.20783
10364.850000	2.21166
10367.350000	2.21129
10369.750000	2.21022
10372.350000	2.21080
10374.750000	2.20675
10377.350000	2.20835
10379.850000	2.20517
10382.350000	2.20355
10384.950000	2.20448
10387.550000	2.20333
10390.250000	2.20002
10392.850000	2.19820
10395.550000	2.19161
10398.150000	2.18509
10400.950000	2.18123
10403.550000	2.18092
10406.350000	2.17695
10408.950000	2.17734
10411.850000	2.17382
10414.550000	2.17219
10417.350000	2.17147
10420.150000	2.16908
10423.050000	2.16492
10425.850000	2.16420
10428.850000	2.15743
10431.650000	2.15481
10434.650000	2.15406
10437.550000	2.15132
10440.450000	2.15001
10443.450000	2.15072
10446.450000	2.14901
10449.450000	2.14866
10452.450000	2.14804
10455.550000	2.14159
10458.650000	2.14376
10461.750000	2.14401
10464.750000	2.14305
10468.050000	2.14076
10471.050000	2.14591
10474.250000	2.14541
10477.350000	2.14361
10480.650000	2.14477
10483.850000	2.14366
10487.050000	2.14178
10490.350000	2.13976
10493.550000	2.14131
10496.950000	2.13375
10500.150000	2.13633
10503.550000	2.13354
10506.950000	2.13211
10510.150000	2.13317
10513.650000	2.13018
10517.050000	2.12612
10520.450000	2.12571
10523.950000	2.12101
10527.350000	2.12060
10530.850000	2.11925
10534.350000	2.11589
10537.850000	2.11164
10541.450000	2.11114
10544.950000	2.10700
10548.550000	2.10671
10552.250000	2.10395
10555.750000	2.09917
10559.450000	2.09773
10563.050000	2.09581
10566.650000	2.09003
10570.450000	2.08942
10574.150000	2.08626
10577.850000	2.08584
10581.550000	2.08475
10585.350000	2.08151
10589.150000	2.08041
10592.950000	2.07957
10596.750000	2.07843
10600.550000	2.07051
10604.450000	2.07165
10608.350000	2.06902
10612.250000	2.06814
10616.150000	2.06714
10620.050000	2.06584
10624.050000	2.06279
10627.950000	2.06470
10632.050000	2.06340
10635.950000	2.06148
10640.050000	2.05552
10644.150000	2.05417
10648.050000	2.05304
10652.250000	2.05188
10656.350000	2.05072
10660.350000	2.04996
10664.650000	2.04711
10668.750000	2.04478
10672.850000	2.03809
10677.150000	2.03901
10681.350000	2.03641
10685.550000	2.03410
10689.850000	2.03530
10694.150000	2.03379
10698.450000	2.02842
10702.750000	2.02746
10707.050000	2.02386
10711.450000	2.01838
10715.850000	2.01373
10720.150000	2.01448
10724.550000	2.01127
10729.050000	2.01209
10733.450000	2.00892
10737.950000	2.00769
10742.350000	2.00431
10746.950000	2.00199
10751.450000	1.99684
10755.950000	1.99476
10760.550000	1.99394
10765.050000	1.98940
10769.750000	1.98963
10774.350000	1.98509
10778.850000	1.98736
10783.650000	1.98234
10788.250000	1.97858
10792.950000	1.97576
10797.650000	1.97427
10802.350000	1.97128
10807.150000	1.97190
10811.950000	1.96970
10816.650000	1.96659
10821.550000	1.96349
10826.250000	1.96153
10831.150000	1.95796
10836.050000	1.95448
10840.850000	1.95407
10845.850000	1.95277
10850.650000	1.95133
10855.750000	1.94910
10860.550000	1.94517
10865.650000	1.93871
10870.650000	1.93641
10875.450000	1.93477
10880.750000	1.93315
10885.650000	1.93091
10890.750000	1.92921
10895.850000	1.92571
10900.850000	1.92195
10906.050000	1.91755
10911.150000	1.91757
10916.350000	1.91327
10921.550000	1.91206
10926.750000	1.91126
10932.050000	1.90578
10937.050000	1.90224
10942.450000	1.89814
10947.750000	1.89641
10953.050000	1.89233
10958.350000	1.89068
10963.650000	1.88749
10969.050000	1.88442
10974.350000	1.88105
10979.850000	1.87847
10985.150000	1.87568
10990.650000	1.87285
10996.050000	1.87065
11001.450000	1.86706
11007.050000	1.86410
11012.450000	1.86097
11018.050000	1.85838
11023.550000	1.85730
11029.150000	1.85203
11034.750000	1.85066
11040.250000	1.84825
11045.950000	1.84433
11051.550000	1.84373
11057.250000	1.84077
11062.750000	1.83756
11068.550000	1.83269
11074.250000	1.83036
11080.050000	1.82917
11085.750000	1.82671
11091.550000	1.82642
11097.250000	1.82076
11103.050000	1.81842
11108.950000	1.81569
11114.750000	1.81055
11120.650000	1.80944
11126.450000	1.80637
11132.450000	1.80416
11138.250000	1.80147
11144.250000	1.79806
11150.150000	1.79489
11156.150000	1.79291
11162.150000	1.78884
11168.150000	1.78671
11174.250000	1.78334
11180.250000	1.78037
11186.350000	1.77889
11192.350000	1.77570
11198.550000	1.77330
11204.550000	1.76988
11210.850000	1.76978
11216.850000	1.76301
11223.150000	1.76119
11229.250000	1.75820
11235.550000	1.75592
11241.750000	1.75267
11248.050000	1.75027
11254.250000	1.74917
11260.650000	1.74433
11266.850000	1.74020
11273.250000	1.73793
11279.550000	1.73578
11285.950000	1.73181
11292.350000	1.73256
11298.750000	1.72792
11305.150000	1.72500
11311.650000	1.72031
11318.050000	1.71697
11324.550000	1.71714
11331.050000	1.71240
11337.550000	1.71137
11344.150000	1.70761
11350.650000	1.70374
11357.350000	1.70127
11363.850000	1.69796
11370.550000	1.69661
11377.050000	1.69454
11383.850000	1.69248
11390.450000	1.68791
11397.150000	1.68294
11403.850000	1.68025
11410.650000	1.67910
11417.250000	1.67557
11424.150000	1.67446
11430.850000	1.67007
