# XDI/1.0
# Column.1: energy(ev)
# Column.2: fluorescence_emission(au)
# Element.symbol: Zn
# Element.edge: K
# Mono.name: Si 2 2 0
# Mono.d_spacing: 1.92
# Beamline.name: FAME
# Sample.name: Frozen solution of ZnCys3His peptide
# Sample.temperature: 10.0 +/- 5.0 K
# Sample.pressure: None
# Citation.doi:  https://doi.org/10.26302/SSHADE/EXPERIMENT_ST_20180418_001
# Citation.comments: Thomas, Sara; Mishra, Bhoopesh (2018): Zn K edge XAS HERFD of Zn compounds at 10K for coordination determination in complex biological systems. SSHADE/FAME (OSUG Data Center). Dataset/Spectral Data. https://doi.org/10.26302/SSHADE/EXPERIMENT_ST_20180418_001Schmitt, Bernard; Bollard, Philippe; Albert, Damien; Garenne, Alexandre; Bonal, Lydie; and the SSHADE partner's consortium (2018). SSHADE: 'Solid Spectroscopy Hosting Architecture of Databases and Expertise'. OSUG Data Center. Service/Database infrastructure. https://doi.org/10.26302/SSHADE
# ////
#---------
# energy(ev)	fluorescence_emission(au)
9512.160000	1.32592
9512.660000	1.32802
9513.160000	1.33013
9513.660000	1.33223
9514.160000	1.33434
9514.660000	1.33645
9515.160000	1.33855
9515.660000	1.34066
9516.160000	1.34276
9516.660000	1.34487
9517.160000	1.34698
9517.660000	1.34908
9518.160000	1.35119
9518.660000	1.35329
9519.160000	1.35540
9519.660000	1.35751
9520.160000	1.35961
9520.660000	1.36172
9521.160000	1.36382
9521.660000	1.36593
9522.160000	1.36804
9522.660000	1.37014
9523.160000	1.37225
9523.660000	1.37435
9524.160000	1.37646
9524.660000	1.37857
9525.160000	1.38067
9525.660000	1.38278
9526.160000	1.38488
9526.660000	1.38699
9527.160000	1.38910
9527.660000	1.39120
9528.160000	1.39331
9528.660000	1.39541
9529.160000	1.39752
9529.660000	1.39963
9530.160000	1.40173
9530.660000	1.40384
9531.160000	1.40594
9531.660000	1.40805
9532.160000	1.41016
9532.660000	1.41226
9533.160000	1.41437
9533.660000	1.41647
9534.160000	1.41858
9534.660000	1.42069
9535.160000	1.42279
9535.660000	1.42490
9536.160000	1.42700
9536.660000	1.42911
9537.160000	1.43122
9537.660000	1.43332
9538.160000	1.43543
9538.660000	1.43753
9539.160000	1.43964
9539.660000	1.44175
9540.160000	1.44385
9540.660000	1.44596
9541.160000	1.44806
9541.660000	1.45017
9542.160000	1.45228
9542.660000	1.45438
9543.160000	1.45649
9543.660000	1.45859
9544.160000	1.46070
9544.660000	1.46281
9545.160000	1.46491
9545.660000	1.46702
9546.160000	1.46912
9546.660000	1.47123
9547.160000	1.47334
9547.660000	1.47544
9548.160000	1.47755
9548.660000	1.47965
9549.160000	1.48176
9549.660000	1.48387
9550.160000	1.48597
9550.660000	1.48808
9551.160000	1.49018
9551.660000	1.49229
9552.160000	1.49440
9552.660000	1.49650
9553.160000	1.49861
9553.660000	1.50071
9554.160000	1.50282
9554.660000	1.50493
9555.160000	1.50703
9555.660000	1.50914
9556.160000	1.51124
9556.660000	1.51335
9557.160000	1.51545
9557.660000	1.51756
9558.160000	1.51967
9558.660000	1.52177
9559.160000	1.52388
9559.660000	1.52598
9560.160000	1.52809
9560.660000	1.53020
9561.160000	1.53230
9561.660000	1.53441
9562.160000	1.53651
9562.660000	1.53862
9563.160000	1.54073
9563.660000	1.54283
9564.160000	1.54494
9564.660000	1.54704
9565.160000	1.54915
9565.660000	1.55126
9566.160000	1.55336
9566.660000	1.55547
9567.160000	1.55757
9567.660000	1.55968
9568.160000	1.56179
9568.660000	1.56389
9569.160000	1.56600
9569.660000	1.56810
9570.160000	1.57021
9570.660000	1.57232
9571.160000	1.57442
9571.660000	1.57653
9572.160000	1.57863
9572.660000	1.58074
9573.160000	1.58285
9573.660000	1.58495
9574.160000	1.58706
9574.660000	1.58916
9575.160000	1.59127
9575.660000	1.59338
9576.160000	1.59548
9576.660000	1.59759
9577.160000	1.59969
9577.660000	1.60180
9578.160000	1.60391
9578.660000	1.60601
9579.160000	1.60812
9579.660000	1.61022
9580.160000	1.61233
9580.660000	1.61444
9581.160000	1.61654
9581.660000	1.61865
9582.160000	1.62075
9582.660000	1.62286
9583.160000	1.62497
9583.660000	1.62707
9584.160000	1.62918
9584.660000	1.63128
9585.160000	1.63339
9585.660000	1.63550
9586.160000	1.63760
9586.660000	1.63971
9587.160000	1.64181
9587.660000	1.64392
9588.160000	1.64603
9588.660000	1.64813
9589.160000	1.65024
9589.660000	1.65234
9590.160000	1.65445
9590.660000	1.65656
9591.160000	1.65866
9591.660000	1.66077
9592.160000	1.66287
9592.660000	1.66498
9593.160000	1.66709
9593.660000	1.66919
9594.160000	1.67130
9594.660000	1.67340
9595.160000	1.67551
9595.660000	1.67762
9596.160000	1.67972
9596.660000	1.68183
9597.160000	1.68393
9597.660000	1.68604
9598.160000	1.68815
9598.660000	1.69025
9599.160000	1.69236
9599.660000	1.69446
9600.160000	1.69657
9600.660000	1.69868
9601.160000	1.70078
9601.660000	1.70289
9602.160000	1.70499
9602.660000	1.70710
9603.160000	1.70921
9603.660000	1.71131
9604.160000	1.71342
9604.660000	1.71552
9605.160000	1.71763
9605.660000	1.71974
9606.160000	1.72184
9606.660000	1.72395
9607.160000	1.72605
9607.660000	1.72816
9608.160000	1.73026
9608.660000	1.73204
9609.160000	1.72889
9609.660000	1.72395
9610.160000	1.71900
9610.660000	1.71406
9611.160000	1.70911
9611.660000	1.70417
9612.160000	1.69922
9612.660000	1.69427
9613.160000	1.68933
9613.660000	1.68447
9614.160000	1.68028
9614.660000	1.67815
9615.160000	1.67601
9615.660000	1.67388
9616.160000	1.67175
9616.660000	1.66962
9617.160000	1.66749
9617.660000	1.66536
9618.160000	1.66323
9618.660000	1.66112
9619.160000	1.65930
9619.660000	1.65866
9620.160000	1.65802
9620.660000	1.65738
9621.160000	1.65674
9621.660000	1.65610
9622.160000	1.65546
9622.660000	1.65482
9623.160000	1.65418
9623.660000	1.65354
9624.160000	1.65302
9624.660000	1.65283
9625.160000	1.65263
9625.660000	1.65243
9626.160000	1.65223
9626.660000	1.65204
9627.160000	1.65184
9627.660000	1.65164
9628.160000	1.65144
9628.660000	1.65135
9629.160000	1.65362
9629.660000	1.65258
9630.160000	1.64698
9630.660000	1.65576
9631.160000	1.64276
9631.660000	1.64569
9632.160000	1.64802
9632.660000	1.66295
9633.160000	1.64436
9633.660000	1.62305
9634.160000	1.62475
9634.660000	1.63467
9635.160000	1.65300
9635.660000	1.66612
9636.160000	1.67151
9636.660000	1.66786
9637.160000	1.65972
9637.660000	1.62430
9638.160000	1.61989
9638.660000	1.60599
9639.160000	1.61998
9639.660000	1.61450
9640.160000	1.59566
9640.660000	1.60667
9641.160000	1.60807
9641.660000	1.60864
9642.160000	1.59715
9642.660000	1.62171
9643.160000	1.66000
9643.660000	1.66268
9644.160000	1.61431
9644.660000	1.61134
9645.160000	1.61204
9645.660000	1.62084
9646.160000	1.61250
9646.660000	1.61528
9647.160000	1.63167
9647.660000	1.62994
9648.160000	1.62330
9648.660000	1.64527
9649.160000	1.66859
9649.660000	1.69397
9650.160000	1.67258
9650.660000	1.67445
9651.160000	1.67829
9651.660000	1.70621
9652.160000	1.73907
9652.660000	1.79529
9653.160000	1.85459
9653.660000	1.90342
9654.160000	2.01532
9654.660000	2.17277
9655.160000	2.40867
9655.660000	2.76605
9656.160000	3.35238
9656.660000	4.23527
9657.160000	5.46111
9657.660000	7.95373
9658.160000	12.37675
9658.660000	24.44831
9659.160000	58.34614
9659.660000	139.47972
9660.160000	282.07261
9660.660000	508.88827
9661.160000	704.45301
9661.660000	864.69509
9662.160000	984.51205
9662.660000	1058.90400
9663.160000	1067.49050
9663.660000	1014.80160
9664.160000	923.81277
9664.660000	846.57357
9665.160000	795.24443
9665.660000	776.49511
9666.160000	783.15270
9666.660000	805.52024
9667.160000	830.77700
9667.660000	861.81656
9668.160000	876.84994
9668.660000	884.39433
9669.160000	884.45332
9669.660000	876.88658
9670.160000	865.03286
9670.660000	850.47115
9671.160000	833.56425
9671.660000	819.91055
9672.160000	807.37891
9672.660000	796.15179
9673.160000	786.20528
9673.660000	775.43325
9674.160000	764.44419
9674.660000	751.49504
9675.160000	741.66529
9675.660000	733.11711
9676.160000	725.87222
9676.660000	721.43073
9677.160000	719.23095
9677.660000	718.44881
9678.160000	718.66410
9678.660000	718.93186
9679.160000	718.80243
9679.660000	718.15895
9680.160000	717.55871
9680.660000	716.09378
9681.160000	714.28178
9681.660000	710.49329
9682.160000	706.28277
9682.660000	700.94871
9683.160000	696.73464
9683.660000	693.55742
9684.160000	689.16807
9684.660000	684.12558
9685.160000	679.85626
9685.660000	676.82707
9686.160000	673.82279
9686.660000	669.32158
9687.160000	664.59515
9687.660000	660.38509
9688.160000	655.80773
9688.660000	651.71223
9689.160000	646.68151
9689.660000	641.17256
9690.160000	635.31774
9690.660000	630.35203
9691.160000	625.94608
9691.660000	619.58949
9692.160000	614.91608
9692.660000	610.22537
9693.160000	606.16253
9693.660000	602.29562
9694.160000	599.07281
9694.660000	596.83896
9695.160000	594.12101
9695.660000	591.93604
9696.160000	590.25777
9696.660000	588.32079
9697.160000	587.51379
9697.660000	587.08511
9698.160000	588.10919
9698.660000	589.87353
9699.160000	592.59973
9699.660000	596.32738
9700.160000	600.08270
9700.660000	603.22721
9701.160000	605.75876
9701.660000	608.29031
9702.160000	610.82225
9702.660000	613.39271
9703.160000	616.96790
9703.660000	623.94747
9704.160000	630.83975
9704.660000	636.29873
9705.160000	641.21687
9705.660000	646.16601
9706.160000	651.65029
9706.660000	657.26593
9707.160000	662.13608
9707.660000	666.02842
9708.160000	669.92542
9708.660000	673.96005
9709.160000	678.14761
9709.660000	682.28297
9710.160000	685.39479
9710.660000	688.41053
9711.160000	691.37157
9711.660000	693.52454
9712.160000	695.62937
9712.660000	697.72107
9713.160000	699.75410
9713.660000	701.77435
9714.160000	703.35393
9714.660000	704.41209
9715.160000	705.47557
9715.660000	706.62243
9716.160000	708.13067
9716.660000	709.61933
9717.160000	710.74025
9717.660000	711.34180
9718.160000	711.94040
9718.660000	712.51300
9719.160000	712.98533
9719.660000	713.44877
9720.160000	713.75683
9720.660000	713.79049
9721.160000	713.82432
9721.660000	713.82863
9722.160000	713.78670
9722.660000	713.74497
9723.160000	713.71793
9723.660000	713.87002
9724.160000	714.02128
9724.660000	714.13853
9725.160000	713.99106
9725.660000	713.83099
9726.160000	713.67343
9726.660000	713.55726
9727.160000	713.45196
9727.660000	713.33902
9728.160000	713.14522
9728.660000	712.89298
9729.160000	712.63980
9729.660000	712.37593
9730.160000	712.07739
9730.660000	711.78011
9731.160000	711.47173
9731.660000	711.09547
9732.160000	710.71896
9732.660000	710.32541
9733.160000	709.66383
9733.660000	708.87496
9734.160000	708.08206
9734.660000	707.13765
9735.160000	705.95911
9735.660000	704.77979
9736.160000	703.54591
9736.660000	701.52248
9737.160000	699.26937
9737.660000	697.01339
9738.160000	694.63313
9738.660000	692.14388
9739.160000	689.65397
9739.660000	687.11567
9740.160000	683.82244
9740.660000	680.42761
9741.160000	677.05015
9741.660000	673.90583
9742.160000	670.97054
9742.660000	668.03502
9743.160000	665.08325
9743.660000	661.89531
9744.160000	658.63073
9744.660000	655.38017
9745.160000	652.41024
9745.660000	649.89818
9746.160000	647.38616
9746.660000	644.87671
9747.160000	642.40158
9747.660000	639.95625
9748.160000	637.51294
9748.660000	635.16856
9749.160000	633.81223
9749.660000	632.46040
9750.160000	631.11294
9750.660000	629.84659
9751.160000	628.79802
9751.660000	627.74974
9752.160000	626.72572
9752.660000	626.17850
9753.160000	625.87655
9753.660000	625.57468
9754.160000	625.27846
9754.660000	625.06309
9755.160000	624.92603
9755.660000	624.78930
9756.160000	624.67692
9756.660000	624.99637
9757.160000	625.34903
9757.660000	625.70206
9758.160000	626.07396
9758.660000	626.66583
9759.160000	627.27561
9759.660000	627.88589
9760.160000	628.53486
9760.660000	629.31719
9761.160000	630.15122
9763.121400	633.57589
9765.101900	637.52311
9767.101500	641.72456
9769.120100	646.25396
9771.157700	650.99596
9773.214400	655.49700
9775.290100	659.74161
9777.384900	663.71084
9779.498800	667.16051
9781.631700	669.87844
9783.783600	671.98229
9785.954600	673.79867
9788.144700	675.23761
9790.353700	676.16276
9792.581900	676.65989
9794.829100	676.07700
9797.095300	674.84031
9799.380600	672.90102
9801.685000	670.37948
9804.008300	667.48753
9806.350800	664.72100
9808.712300	661.81910
9811.092800	658.46204
9813.492400	654.46684
9815.911100	650.49096
9818.348700	646.07203
9820.805500	641.93188
9823.281300	638.64087
9825.776100	635.41898
9828.290000	633.47990
9830.822900	631.66078
9833.374900	630.91825
9835.946000	630.18563
9838.536100	630.27117
9841.145200	630.81328
9843.773400	632.01102
9846.420600	633.31702
9849.086900	635.10080
9851.772300	636.81699
9854.476700	638.61997
9857.200100	639.94242
9859.942600	640.97879
9862.704100	642.40116
9865.484700	643.29296
9868.284400	643.76314
9871.103000	643.39796
9873.940800	643.47821
9876.797600	643.40418
9879.673400	642.44326
9882.568300	641.35871
9885.482200	640.48735
9888.415200	639.82049
9891.367300	638.46505
9894.338400	636.79042
9897.328500	635.02116
9900.337700	633.56305
9903.365900	631.95992
9906.413200	629.76086
9909.479600	627.50598
9912.564900	625.36697
9915.669400	623.93644
9918.792900	622.27961
9921.935400	621.22945
9925.097000	620.37706
9928.277600	619.98650
9931.477300	619.67340
9934.696100	619.46009
9937.933800	618.97702
9941.190700	618.84714
9944.466600	618.95254
9947.761500	618.85343
9951.075500	618.10940
9954.408500	617.38328
9957.760600	617.60157
9961.131800	617.02690
9964.521900	616.00713
9967.931200	614.25641
9971.359500	613.51269
9974.806800	612.40823
9978.273200	611.61896
9981.758600	610.86132
9985.263100	610.47307
9988.786600	609.60155
9992.329200	608.04691
9995.890900	606.66069
9999.471600	605.41015
10003.071000	604.32406
10006.690000	603.14779
10010.328000	601.87808
10013.985000	600.83761
10017.661000	599.66719
10021.356000	598.30346
10025.070000	597.12183
10028.803000	596.30368
10032.555000	595.45390
10036.326000	594.27596
10040.116000	593.37714
10043.926000	592.37894
10047.754000	591.86842
10051.601000	591.18274
10055.468000	591.27166
10059.353000	591.21817
10063.258000	590.72963
10067.181000	589.78530
10071.124000	589.29350
10075.086000	589.25009
10079.066000	589.24121
10083.066000	588.86532
10087.085000	588.13501
10091.123000	587.05640
10095.180000	586.31004
10099.256000	585.72609
10103.351000	585.12603
10107.465000	583.69365
10111.598000	582.25878
10115.750000	581.13519
10119.922000	580.36073
10124.112000	579.42067
10128.321000	578.72504
10132.550000	577.86678
10136.797000	577.43945
10141.064000	576.84066
10145.349000	576.62887
10149.654000	575.59560
10153.977000	574.70861
10158.320000	573.57374
10162.682000	572.93947
10167.062000	571.90029
10171.462000	570.98438
10175.881000	570.19011
10180.319000	569.82797
10184.776000	569.99387
10189.252000	570.05573
10193.747000	569.83944
10198.261000	569.35324
10202.795000	569.52607
10207.347000	571.08680
10211.918000	570.89786
10216.508000	569.21349
10221.118000	565.79323
10225.746000	563.80195
10230.394000	562.89559
10235.060000	563.20649
10239.746000	563.82153
10244.450000	563.46514
10249.174000	562.13308
10253.917000	560.72296
10258.679000	560.23551
10263.459000	559.89402
10268.259000	559.52228
10273.078000	558.51511
10277.916000	557.40951
10282.773000	556.31210
10287.649000	555.43505
10292.544000	554.35507
10297.459000	553.34719
10302.392000	552.82309
10307.344000	552.55404
10312.315000	552.22329
10317.306000	551.42335
10322.315000	550.91397
10327.344000	549.95497
10332.391000	548.88504
10337.458000	547.88677
10342.544000	547.37438
10347.648000	547.04495
10352.772000	546.25076
10357.915000	545.50349
10363.077000	544.88158
10368.257000	544.34836
10373.457000	543.68472
10378.676000	542.79747
10383.914000	541.84016
10389.171000	540.31287
10394.448000	536.71911
10399.743000	531.61023
