# XDI/1.0
# Column.1: energy(ev)
# Column.2: fluorescence_emission(au)
# Element.symbol: Zn
# Element.edge: K
# Mono.name: Si 2 2 0
# Mono.d_spacing: 1.92
# Beamline.name: FAME
# Sample.name: Frozen solution of ZnCys2His2 peptide
# Sample.temperature: 10.0 +/- 5.0 K
# Sample.pressure: None
# Citation.doi:  https://doi.org/10.26302/SSHADE/EXPERIMENT_ST_20180418_001
# Citation.comments: Thomas, Sara; Mishra, Bhoopesh (2018): Zn K edge XAS HERFD of Zn compounds at 10K for coordination determination in complex biological systems. SSHADE/FAME (OSUG Data Center). Dataset/Spectral Data. https://doi.org/10.26302/SSHADE/EXPERIMENT_ST_20180418_001Schmitt, Bernard; Bollard, Philippe; Albert, Damien; Garenne, Alexandre; Bonal, Lydie; and the SSHADE partner's consortium (2018). SSHADE: 'Solid Spectroscopy Hosting Architecture of Databases and Expertise'. OSUG Data Center. Service/Database infrastructure. https://doi.org/10.26302/SSHADE
# ////
#---------
# energy(ev)	fluorescence_emission(au)
9512.160000	1.28362
9512.660000	1.28575
9513.160000	1.28789
9513.660000	1.29002
9514.160000	1.29216
9514.660000	1.29430
9515.160000	1.29643
9515.660000	1.29857
9516.160000	1.30071
9516.660000	1.30284
9517.160000	1.30498
9517.660000	1.30711
9518.160000	1.30925
9518.660000	1.31139
9519.160000	1.31352
9519.660000	1.31566
9520.160000	1.31780
9520.660000	1.31993
9521.160000	1.32207
9521.660000	1.32420
9522.160000	1.32634
9522.660000	1.32848
9523.160000	1.33061
9523.660000	1.33275
9524.160000	1.33489
9524.660000	1.33702
9525.160000	1.33916
9525.660000	1.34129
9526.160000	1.34343
9526.660000	1.34557
9527.160000	1.34770
9527.660000	1.34984
9528.160000	1.35197
9528.660000	1.35411
9529.160000	1.35625
9529.660000	1.35838
9530.160000	1.36052
9530.660000	1.36266
9531.160000	1.36479
9531.660000	1.36693
9532.160000	1.36906
9532.660000	1.37120
9533.160000	1.37334
9533.660000	1.37547
9534.160000	1.37761
9534.660000	1.37975
9535.160000	1.38188
9535.660000	1.38402
9536.160000	1.38615
9536.660000	1.38829
9537.160000	1.39043
9537.660000	1.39256
9538.160000	1.39470
9538.660000	1.39684
9539.160000	1.39897
9539.660000	1.40111
9540.160000	1.40324
9540.660000	1.40538
9541.160000	1.40752
9541.660000	1.40965
9542.160000	1.41179
9542.660000	1.41392
9543.160000	1.41606
9543.660000	1.41820
9544.160000	1.42033
9544.660000	1.42247
9545.160000	1.42461
9545.660000	1.42674
9546.160000	1.42888
9546.660000	1.43101
9547.160000	1.43315
9547.660000	1.43529
9548.160000	1.43742
9548.660000	1.43956
9549.160000	1.44170
9549.660000	1.44383
9550.160000	1.44597
9550.660000	1.44810
9551.160000	1.45024
9551.660000	1.45238
9552.160000	1.45451
9552.660000	1.45665
9553.160000	1.45879
9553.660000	1.46092
9554.160000	1.46306
9554.660000	1.46519
9555.160000	1.46733
9555.660000	1.46947
9556.160000	1.47160
9556.660000	1.47374
9557.160000	1.47587
9557.660000	1.47801
9558.160000	1.48015
9558.660000	1.48228
9559.160000	1.48442
9559.660000	1.48656
9560.160000	1.48869
9560.660000	1.49083
9561.160000	1.49296
9561.660000	1.49510
9562.160000	1.49724
9562.660000	1.49937
9563.160000	1.50151
9563.660000	1.50365
9564.160000	1.50578
9564.660000	1.50792
9565.160000	1.51005
9565.660000	1.51219
9566.160000	1.51433
9566.660000	1.51646
9567.160000	1.51860
9567.660000	1.52073
9568.160000	1.52287
9568.660000	1.52501
9569.160000	1.52714
9569.660000	1.52928
9570.160000	1.53142
9570.660000	1.53355
9571.160000	1.53569
9571.660000	1.53782
9572.160000	1.53996
9572.660000	1.54210
9573.160000	1.54423
9573.660000	1.54637
9574.160000	1.54851
9574.660000	1.55064
9575.160000	1.55278
9575.660000	1.55491
9576.160000	1.55705
9576.660000	1.55919
9577.160000	1.56132
9577.660000	1.56346
9578.160000	1.56560
9578.660000	1.56773
9579.160000	1.56987
9579.660000	1.57200
9580.160000	1.57414
9580.660000	1.57628
9581.160000	1.57841
9581.660000	1.58055
9582.160000	1.58268
9582.660000	1.58482
9583.160000	1.58696
9583.660000	1.58909
9584.160000	1.59123
9584.660000	1.59337
9585.160000	1.59550
9585.660000	1.59764
9586.160000	1.59977
9586.660000	1.60191
9587.160000	1.60405
9587.660000	1.60618
9588.160000	1.60832
9588.660000	1.61046
9589.160000	1.61259
9589.660000	1.61473
9590.160000	1.61686
9590.660000	1.61900
9591.160000	1.62114
9591.660000	1.62327
9592.160000	1.62541
9592.660000	1.62755
9593.160000	1.62968
9593.660000	1.63182
9594.160000	1.63395
9594.660000	1.63609
9595.160000	1.63823
9595.660000	1.64036
9596.160000	1.64250
9596.660000	1.64463
9597.160000	1.64677
9597.660000	1.64891
9598.160000	1.65104
9598.660000	1.65318
9599.160000	1.65532
9599.660000	1.65745
9600.160000	1.65959
9600.660000	1.66172
9601.160000	1.66386
9601.660000	1.66600
9602.160000	1.66813
9602.660000	1.67027
9603.160000	1.67241
9603.660000	1.67454
9604.160000	1.67668
9604.660000	1.67881
9605.160000	1.68095
9605.660000	1.68309
9606.160000	1.68522
9606.660000	1.68736
9607.160000	1.68950
9607.660000	1.69163
9608.160000	1.69377
9608.660000	1.69576
9609.160000	1.69349
9609.660000	1.69010
9610.160000	1.68671
9610.660000	1.68333
9611.160000	1.67994
9611.660000	1.67655
9612.160000	1.67316
9612.660000	1.66977
9613.160000	1.66638
9613.660000	1.66299
9614.160000	1.65924
9614.660000	1.65566
9615.160000	1.65208
9615.660000	1.64850
9616.160000	1.64491
9616.660000	1.64133
9617.160000	1.63775
9617.660000	1.63417
9618.160000	1.63059
9618.660000	1.62702
9619.160000	1.62400
9619.660000	1.62246
9620.160000	1.62093
9620.660000	1.61940
9621.160000	1.61786
9621.660000	1.61633
9622.160000	1.61480
9622.660000	1.61326
9623.160000	1.61173
9623.660000	1.61020
9624.160000	1.60885
9624.660000	1.60895
9625.160000	1.60906
9625.660000	1.60917
9626.160000	1.60928
9626.660000	1.60939
9627.160000	1.60949
9627.660000	1.60960
9628.160000	1.60971
9628.660000	1.60961
9629.160000	1.60400
9629.660000	1.57869
9630.160000	1.56746
9630.660000	1.53604
9631.160000	1.55864
9631.660000	1.54057
9632.160000	1.57428
9632.660000	1.60359
9633.160000	1.62025
9633.660000	1.62564
9634.160000	1.59554
9634.660000	1.59756
9635.160000	1.57473
9635.660000	1.58441
9636.160000	1.56479
9636.660000	1.58624
9637.160000	1.56921
9637.660000	1.56666
9638.160000	1.54432
9638.660000	1.55702
9639.160000	1.57760
9639.660000	1.56049
9640.160000	1.56682
9640.660000	1.55067
9641.160000	1.56223
9641.660000	1.54012
9642.160000	1.55672
9642.660000	1.57356
9643.160000	1.58303
9643.660000	1.58958
9644.160000	1.60078
9644.660000	1.62483
9645.160000	1.61605
9645.660000	1.59866
9646.160000	1.60472
9646.660000	1.59043
9647.160000	1.55521
9647.660000	1.55185
9648.160000	1.52630
9648.660000	1.55036
9649.160000	1.53595
9649.660000	1.56847
9650.160000	1.60116
9650.660000	1.65410
9651.160000	1.73935
9651.660000	1.73439
9652.160000	1.75418
9652.660000	1.76575
9653.160000	1.84678
9653.660000	1.89736
9654.160000	2.03172
9654.660000	2.20394
9655.160000	2.52069
9655.660000	2.95814
9656.160000	3.69480
9656.660000	4.77118
9657.160000	6.41358
9657.660000	9.60044
9658.160000	16.34895
9658.660000	36.06192
9659.160000	90.97754
9659.660000	223.25919
9660.160000	447.31970
9660.660000	768.76319
9661.160000	1031.17390
9661.660000	1240.44580
9662.160000	1403.21910
9662.660000	1519.35040
9663.160000	1556.16080
9663.660000	1508.14230
9664.160000	1392.29920
9664.660000	1265.26400
9665.160000	1167.63200
9665.660000	1134.00110
9666.160000	1164.60880
9666.660000	1228.90530
9667.160000	1297.34610
9667.660000	1360.08570
9668.160000	1392.55120
9668.660000	1405.11950
9669.160000	1407.63730
9669.660000	1406.04910
9670.160000	1401.45930
9670.660000	1390.11540
9671.160000	1368.99770
9671.660000	1341.92860
9672.160000	1310.73980
9672.660000	1280.07770
9673.160000	1249.85170
9673.660000	1221.91410
9674.160000	1194.56320
9674.660000	1164.87240
9675.160000	1144.40620
9675.660000	1128.91260
9676.160000	1119.32250
9676.660000	1111.52620
9677.160000	1107.53520
9677.660000	1105.20810
9678.160000	1105.37340
9678.660000	1104.75120
9679.160000	1104.63770
9679.660000	1104.18820
9680.160000	1102.07070
9680.660000	1097.62600
9681.160000	1089.96600
9681.660000	1083.59710
9682.160000	1075.02810
9682.660000	1065.23690
9683.160000	1055.06160
9683.660000	1044.95360
9684.160000	1036.34290
9684.660000	1026.18320
9685.160000	1018.52180
9685.660000	1011.28580
9686.160000	1003.20020
9686.660000	994.56250
9687.160000	986.09367
9687.660000	978.68544
9688.160000	971.05300
9688.660000	963.61123
9689.160000	956.20894
9689.660000	948.43218
9690.160000	940.14805
9690.660000	933.25090
9691.160000	926.51598
9691.660000	918.04200
9692.160000	909.86477
9692.660000	902.35215
9693.160000	896.26664
9693.660000	890.80716
9694.160000	885.19717
9694.660000	879.95602
9695.160000	875.17670
9695.660000	871.64469
9696.160000	869.19088
9696.660000	867.40700
9697.160000	867.14370
9697.660000	867.58849
9698.160000	869.18845
9698.660000	872.92433
9699.160000	879.43854
9699.660000	887.78564
9700.160000	896.13260
9700.660000	902.90464
9701.160000	908.22210
9701.660000	913.53955
9702.160000	918.85757
9702.660000	924.24643
9703.160000	931.86323
9703.660000	944.99126
9704.160000	958.03742
9704.660000	968.45758
9705.160000	977.86959
9705.660000	987.29538
9706.160000	997.28560
9706.660000	1007.35830
9707.160000	1016.51860
9707.660000	1024.30650
9708.160000	1032.07780
9708.660000	1039.32730
9709.160000	1046.10830
9709.660000	1052.83270
9710.160000	1057.72710
9710.660000	1062.44650
9711.160000	1067.10730
9711.660000	1070.03680
9712.160000	1072.92180
9712.660000	1075.60380
9713.160000	1077.25960
9713.660000	1078.89690
9714.160000	1080.01470
9714.660000	1080.39540
9715.160000	1080.77270
9715.660000	1081.02850
9716.160000	1080.78740
9716.660000	1080.53850
9717.160000	1080.02270
9717.660000	1079.20630
9718.160000	1078.38620
9718.660000	1077.47080
9719.160000	1076.39550
9719.660000	1075.31790
9720.160000	1074.17110
9720.660000	1072.90750
9721.160000	1071.64650
9721.660000	1070.48880
9722.160000	1069.51710
9722.660000	1068.54610
9723.160000	1067.57550
9723.660000	1066.63900
9724.160000	1065.70270
9724.660000	1064.78350
9725.160000	1064.32920
9725.660000	1063.87780
9726.160000	1063.44300
9726.660000	1063.45170
9727.160000	1063.60800
9727.660000	1063.77610
9728.160000	1064.30010
9728.660000	1065.02060
9729.160000	1065.74130
9729.660000	1066.49470
9730.160000	1067.30080
9730.660000	1068.10640
9731.160000	1068.89880
9731.660000	1069.66000
9732.160000	1070.42110
9732.660000	1071.16370
9733.160000	1071.41990
9733.660000	1071.49680
9734.160000	1071.56870
9734.660000	1071.45580
9735.160000	1070.96550
9735.660000	1070.47490
9736.160000	1069.94930
9736.660000	1068.35020
9737.160000	1066.55010
9737.660000	1064.73450
9738.160000	1062.37380
9738.660000	1059.64140
9739.160000	1056.90860
9739.660000	1054.13100
9740.160000	1050.20460
9740.660000	1046.21100
9741.160000	1042.20520
9741.660000	1037.81310
9742.160000	1033.12140
9742.660000	1028.42970
9743.160000	1023.73520
9743.660000	1018.99850
9744.160000	1014.26380
9744.660000	1009.53180
9745.160000	1004.86560
9745.660000	1000.36460
9746.160000	995.86371
9746.660000	991.37314
9747.160000	987.19156
9747.660000	983.18934
9748.160000	979.18866
9748.660000	975.25766
9749.160000	972.13382
9749.660000	969.01001
9750.160000	965.89067
9750.660000	962.93220
9751.160000	960.31303
9751.660000	957.69401
9752.160000	955.09708
9752.660000	953.21606
9753.160000	951.76408
9753.660000	950.31227
9754.160000	948.88202
9754.660000	948.08392
9755.160000	947.64571
9755.660000	947.20772
9756.160000	946.79293
9756.660000	946.98474
9757.160000	947.23699
9757.660000	947.48977
9758.160000	947.77855
9758.660000	948.47883
9759.160000	949.17911
9759.660000	949.87943
9760.160000	950.59435
9760.660000	951.38493
9761.160000	952.31624
9763.121400	956.35317
9765.101900	961.67274
9767.101500	967.60553
9769.120100	974.11965
9771.157700	980.86028
9773.214400	987.19300
9775.290100	992.48808
9777.384900	996.55435
9779.498800	1000.13770
9781.631700	1003.15750
9783.783600	1005.78300
9785.954600	1008.60670
9788.144700	1010.78780
9790.353700	1012.45980
9792.581900	1013.39240
9794.829100	1014.54970
9797.095300	1015.14490
9799.380600	1015.13400
9801.685000	1014.51850
9804.008300	1013.00460
9806.350800	1010.07220
9808.712300	1005.78360
9811.092800	1001.45630
9813.492400	996.96659
9815.911100	991.83410
9818.348700	986.03108
9820.805500	979.89526
9823.281300	973.66733
9825.776100	967.98863
9828.290000	962.29041
9830.822900	957.80145
9833.374900	954.42620
9835.946000	952.76228
9838.536100	951.81142
9841.145200	951.23731
9843.773400	951.71135
9846.420600	953.04615
9849.086900	954.75344
9851.772300	956.51075
9854.476700	957.58570
9857.200100	958.93938
9859.942600	961.11328
9862.704100	963.24590
9865.484700	965.15347
9868.284400	965.24158
9871.103000	965.58609
9873.940800	965.51844
9876.797600	965.44717
9879.673400	964.59367
9882.568300	963.11305
9885.482200	961.23883
9888.415200	959.58541
9891.367300	958.27447
9894.338400	956.97602
9897.328500	954.78444
9900.337700	952.71657
9903.365900	950.29907
9906.413200	948.56577
9909.479600	945.69345
9912.564900	943.05082
9915.669400	940.43149
9918.792900	939.04759
9921.935400	937.06965
9925.097000	934.53160
9928.277600	931.72700
9931.477300	930.43998
9934.696100	929.92096
9937.933800	929.40508
9941.190700	928.29656
9944.466600	926.82406
9947.761500	926.24922
9951.075500	925.95226
9954.408500	926.20355
9957.760600	925.58623
9961.131800	924.56693
9964.521900	924.38251
9967.931200	923.97686
9971.359500	923.42805
9974.806800	921.71104
9978.273200	919.93729
9981.758600	919.04121
9985.263100	917.75317
9988.786600	917.19873
9992.329200	915.88208
9995.890900	914.97798
9999.471600	913.40495
10003.071000	912.37950
10006.690000	911.06945
10010.328000	909.79399
10013.985000	908.30460
10017.661000	907.19818
10021.356000	905.50279
10025.070000	903.44947
10028.803000	901.94433
10032.555000	900.65868
10036.326000	899.51707
10040.116000	897.62104
10043.926000	896.34111
10047.754000	895.34638
10051.601000	894.21213
10055.468000	892.71358
10059.353000	891.35130
10063.258000	890.76183
10067.181000	890.81920
10071.124000	890.72347
10075.086000	890.03731
10079.066000	888.86245
10083.066000	887.84662
10087.085000	886.95998
10091.123000	885.97457
10095.180000	885.44906
10099.256000	884.87362
10103.351000	884.18714
10107.465000	882.44001
10111.598000	880.27517
10115.750000	878.59111
10119.922000	877.02057
10124.112000	876.08564
10128.321000	874.72037
10132.550000	873.41977
10136.797000	871.93482
10141.064000	870.57238
10145.349000	869.34295
10149.654000	868.43780
10153.977000	867.52329
10158.320000	866.49547
10162.682000	864.82222
10167.062000	862.75495
10171.462000	860.81522
10175.881000	859.66523
10180.319000	858.96603
10184.776000	858.80513
10189.252000	858.24801
10193.747000	858.04984
10198.261000	857.54910
10202.795000	856.89086
10207.347000	855.60453
10211.918000	854.18607
10216.508000	852.99142
10221.118000	851.60313
10225.746000	850.59590
10230.394000	849.72960
10235.060000	849.46535
10239.746000	848.80930
10244.450000	847.79351
10249.174000	846.38495
10253.917000	844.84799
10258.679000	843.70108
10263.459000	842.22592
10268.259000	840.72699
10273.078000	838.94832
10277.916000	837.50160
10282.773000	836.20442
10287.649000	835.00717
10292.544000	833.99213
10297.459000	833.26547
10302.392000	832.51979
10307.344000	831.96533
10312.315000	831.20201
10317.306000	829.97817
10322.315000	828.35855
10327.344000	826.48814
10332.391000	825.17814
10337.458000	823.98325
10342.544000	822.61754
10347.648000	820.79359
10352.772000	818.88442
10357.915000	817.83835
10363.077000	816.86715
10368.257000	815.81303
10373.457000	814.36339
10378.676000	813.21335
10383.914000	812.42093
10389.171000	811.73905
10394.448000	810.79917
10399.743000	809.64873
